Data from HR4C25001_14-53-26-487.txt Node
Date: Tue Jun 16 14:53:26 CDT 2026
User: jam28248
Spectrometer: HR4C2500
Trigger mode: 4
Integration Time (sec): 1.000000E-1
Scans to average: 20
Electric dark correction enabled: true
Nonlinearity correction enabled: false
Boxcar width: 0
XAxis mode: Wavelengths
Number of Pixels in Spectrum: 3648
>>>>>Begin Spectral Data<<<<<
629.66646	-66.82
629.6848	-66.82
629.70313	-66.82
629.72147	-82.17
629.7398	-61.67
629.75812	-7.27
629.77645	-1.32
629.79477	7.38
629.81309	-3.67
629.83141	-16.72
629.84972	2.08
629.86803	1.28
629.88634	14.28
629.90465	-15.07
629.92295	-13.87
629.94126	-11.07
629.95956	1.18
629.97785	42.83
629.99615	128.68
630.01444	126.93
630.03273	67.53
630.05102	37.83
630.0693	20.08
630.08759	21.88
630.10587	4.43
630.12415	0.38
630.14242	7.68
630.16069	-12.97
630.17896	-6.97
630.19723	6.73
630.2155	29.53
630.23376	100.68
630.25202	36.73
630.27028	22.23
630.28854	17.33
630.30679	1.23
630.32504	0.08
630.34329	5.08
630.36153	13.43
630.37978	31.08
630.39802	9.68
630.41626	-1.32
630.43449	-6.37
630.45273	2.93
630.47096	15.13
630.48919	7.73
630.50741	14.28
630.52564	2.03
630.54386	12.53
630.56208	21.38
630.58029	4.23
630.59851	4.63
630.61672	7.43
630.63493	16.18
630.65313	8.18
630.67134	6.98
630.68954	-4.77
630.70774	10.73
630.72594	21.73
630.74413	2.13
630.76232	-12.27
630.78051	-9.17
630.7987	2.18
630.81688	9.58
630.83507	22.43
630.85325	9.78
630.87142	2.58
630.8896	4.68
630.90777	-6.62
630.92594	-18.02
630.94411	16.78
630.96227	31.18
630.98043	56.13
630.99859	16.93
631.01675	3.78
631.03491	-4.52
631.05306	-9.87
631.07121	9.78
631.08936	10.08
631.1075	-5.47
631.12564	6.83
631.14379	6.23
631.16192	14.58
631.18006	8.18
631.19819	8.68
631.21632	0.08
631.23445	-15.47
631.25258	-7.12
631.2707	5.33
631.28882	6.68
631.30694	12.28
631.32505	5.08
631.34317	10.98
631.36128	2.13
631.37939	10.33
631.39749	2.13
631.4156	1.23
631.4337	-7.22
631.4518	1.38
631.46989	-12.57
631.48799	-9.02
631.50608	-3.67
631.52417	-11.22
631.54225	1.28
631.56034	3.23
631.57842	3.98
631.5965	1.73
631.61457	-21.07
631.63265	-11.52
631.65072	-0.17
631.66879	-8.67
631.68685	15.98
631.70492	29.78
631.72298	19.63
631.74104	2.38
631.7591	0.93
631.77715	0.53
631.7952	11.98
631.81325	13.13
631.8313	-2.32
631.84934	19.43
631.86739	21.83
631.88543	5.08
631.90346	10.58
631.9215	-5.67
631.93953	3.13
631.95756	-0.27
631.97559	6.68
631.99361	-10.02
632.01163	-10.47
632.02965	7.98
632.04767	19.88
632.06569	22.38
632.0837	4.43
632.10171	-10.47
632.11972	-13.72
632.13772	0.53
632.15573	21.53
632.17373	0.73
632.19172	-11.07
632.20972	-4.17
632.22771	-11.87
632.2457	-3.72
632.26369	7.98
632.28168	19.28
632.29966	4.13
632.31764	10.73
632.33562	7.28
632.35359	8.73
632.37157	5.88
632.38954	5.53
632.40751	2.33
632.42547	-11.32
632.44344	14.78
632.4614	7.78
632.47936	-0.47
632.49731	-0.07
632.51527	0.78
632.53322	17.23
632.55117	14.78
632.56911	8.33
632.58706	0.98
632.605	2.13
632.62294	9.48
632.64087	14.13
632.65881	-9.67
632.67674	3.28
632.69467	3.18
632.7126	8.93
632.73052	21.88
632.74844	21.68
632.76636	31.28
632.78428	45.48
632.80219	58.23
632.8201	74.78
632.83801	60.28
632.85592	81.18
632.87383	147.03
632.89173	260.28
632.90963	726.78
632.92753	1860.33
632.94542	2815.08
632.96331	2201.63
632.9812	890.98
632.99909	287.13
633.01697	111.48
633.03486	64.93
633.05274	36.58
633.07061	25.63
633.08849	16.78
633.10636	23.08
633.12423	30.08
633.1421	14.93
633.15997	31.73
633.17783	13.18
633.19569	18.43
633.21355	23.28
633.2314	22.23
633.24926	-4.77
633.26711	-0.67
633.28495	6.78
633.3028	-9.07
633.32064	0.33
633.33848	15.78
633.35632	29.58
633.37416	22.18
633.39199	7.48
633.40982	-5.22
633.42765	6.58
633.44548	1.38
633.4633	-15.47
633.48112	-10.57
633.49894	-9.87
633.51676	3.43
633.53457	0.38
633.55238	8.78
633.57019	-4.07
633.588	-13.57
633.6058	-11.77
633.6236	4.73
633.6414	4.73
633.6592	-7.87
633.67699	-13.32
633.69478	-3.37
633.71257	18.13
633.73036	20.43
633.74815	-4.87
633.76593	-2.87
633.78371	2.18
633.80148	-2.47
633.81926	-5.52
633.83703	-8.27
633.8548	-30.22
633.87257	-26.52
633.89033	-14.07
633.90809	3.78
633.92585	-2.82
633.94361	-8.07
633.96137	-4.82
633.97912	7.93
633.99687	-23.77
634.01462	0.08
634.03236	13.78
634.0501	12.63
634.06784	-9.37
634.08558	10.53
634.10332	11.83
634.12105	-1.72
634.13878	12.83
634.15651	9.23
634.17423	3.48
634.19196	-4.27
634.20968	-5.52
634.22739	1.68
634.24511	2.33
634.26282	12.93
634.28053	25.88
634.29824	8.03
634.31595	6.08
634.33365	4.48
634.35135	-12.47
634.36905	-17.72
634.38675	1.63
634.40444	3.18
634.42213	-8.07
634.43982	-5.42
634.4575	-13.07
634.47519	13.33
634.49287	28.83
634.51055	-2.82
634.52822	-1.37
634.5459	-1.47
634.56357	-1.07
634.58124	-23.47
634.59891	-1.32
634.61657	7.53
634.63423	13.58
634.65189	18.48
634.66955	-1.62
634.6872	14.88
634.70485	1.68
634.7225	-6.47
634.74015	11.53
634.75779	-1.02
634.77544	-0.57
634.79307	-4.77
634.81071	15.13
634.82835	5.23
634.84598	-7.87
634.86361	-12.12
634.88123	10.83
634.89886	1.53
634.91648	-1.97
634.9341	-1.27
634.95172	7.63
634.96933	7.38
634.98695	15.23
635.00456	-0.32
635.02216	9.53
635.03977	9.43
635.05737	-0.32
635.07497	-7.97
635.09257	-0.87
635.11016	6.83
635.12776	6.73
635.14535	-6.87
635.16294	12.53
635.18052	1.53
635.1981	10.58
635.21569	8.98
635.23326	0.88
635.25084	12.58
635.26841	-0.97
635.28598	3.63
635.30355	-7.02
635.32112	-14.12
635.33868	-18.47
635.35624	-16.47
635.3738	-4.87
635.39136	-9.37
635.40891	-8.82
635.42646	4.28
635.44401	5.83
635.46155	-7.37
635.4791	-0.97
635.49664	3.38
635.51418	16.98
635.53171	3.03
635.54925	-2.92
635.56678	-8.77
635.58431	1.53
635.60184	24.48
635.61936	26.23
635.63688	-4.27
635.6544	5.58
635.67192	-7.22
635.68943	1.08
635.70694	-1.87
635.72445	2.63
635.74196	-12.67
635.75946	-14.67
635.77697	-8.72
635.79447	0.78
635.81196	15.53
635.82946	-3.62
635.84695	-16.72
635.86444	1.38
635.88193	3.93
635.89941	11.53
635.91689	-2.92
635.93437	-8.02
635.95185	-6.42
635.96933	-6.62
635.9868	10.58
636.00427	42.53
636.02174	10.58
636.0392	-8.62
636.05666	12.73
636.07412	0.78
636.09158	-2.62
636.10904	-7.57
636.12649	0.23
636.14394	-3.87
636.16139	16.23
636.17883	-1.62
636.19628	-5.52
636.21372	-8.42
636.23116	-3.42
636.24859	-10.77
636.26602	-8.17
636.28345	6.88
636.30088	6.68
636.31831	-2.17
636.33573	-8.42
636.35315	-1.62
636.37057	7.53
636.38799	-0.77
636.4054	12.68
636.42281	12.68
636.44022	3.43
636.45763	-13.97
636.47503	-13.47
636.49243	-16.77
636.50983	-15.57
636.52723	-7.77
636.54462	-3.32
636.56201	-3.92
636.5794	-14.32
636.59679	-15.72
636.61417	-2.52
636.63155	-5.97
636.64893	23.48
636.66631	18.63
636.68368	-5.72
636.70106	-13.87
636.71843	-17.12
636.73579	-12.22
636.75316	0.58
636.77052	3.38
636.78788	8.18
636.80524	-4.97
636.82259	-15.02
636.83994	-13.82
636.85729	-12.87
636.87464	-18.52
636.89198	-10.62
636.90933	15.88
636.92667	12.58
636.944	-5.32
636.96134	-14.07
636.97867	-10.32
636.996	-3.22
637.01333	-3.72
637.03066	-6.42
637.04798	-22.62
637.0653	-5.07
637.08262	1.18
637.09993	-6.07
637.11724	-13.77
637.13455	5.63
637.15186	19.38
637.16917	11.53
637.18647	2.78
637.20377	6.73
637.22107	0.03
637.23837	3.48
637.25566	32.23
637.27295	3.08
637.29024	6.78
637.30752	-6.57
637.32481	-2.87
637.34209	8.18
637.35937	26.68
637.37664	15.53
637.39392	11.13
637.41119	0.13
637.42846	6.43
637.44572	-7.17
637.46299	1.23
637.48025	32.38
637.49751	7.68
637.51476	-3.62
637.53202	11.78
637.54927	-0.12
637.56652	1.03
637.58376	6.58
637.60101	3.08
637.61825	17.58
637.63549	18.28
637.65273	15.53
637.66996	12.33
637.68719	27.13
637.70442	36.78
637.72165	49.43
637.73887	82.48
637.7561	157.38
637.77332	439.08
637.79053	1568.33
637.80775	3440.23
637.82496	3659.98
637.84217	1791.13
637.85938	462.63
637.87658	153.43
637.89378	66.33
637.91098	32.03
637.92818	20.78
637.94538	31.58
637.96257	32.23
637.97976	19.03
637.99695	10.78
638.01413	-5.72
638.03132	2.23
638.0485	5.93
638.06567	-12.12
638.08285	3.58
638.10002	4.73
638.11719	2.18
638.13436	-0.87
638.15153	3.08
638.16869	-13.12
638.18585	-7.37
638.20301	-10.02
638.22016	-16.97
638.23732	-21.22
638.25447	-11.07
638.27162	-3.72
638.28876	-4.12
638.30591	-7.32
638.32305	3.78
638.34019	11.28
638.35732	12.43
638.37446	20.93
638.39159	-6.37
638.40872	-13.92
638.42584	-3.32
638.44297	0.13
638.46009	-5.22
638.47721	0.98
638.49432	12.88
638.51144	5.98
638.52855	3.53
638.54566	-10.42
638.56276	-3.12
638.57987	3.88
638.59697	6.43
638.61407	-0.12
638.63117	-4.57
638.64826	0.03
638.66535	0.98
638.68244	-1.07
638.69953	4.33
638.71661	11.98
638.7337	-1.12
638.75078	-1.72
638.76785	-0.37
638.78493	-4.87
638.802	-12.97
638.81907	-5.07
638.83614	3.43
638.8532	17.33
638.87026	-2.67
638.88732	-18.32
638.90438	-8.37
638.92144	10.83
638.93849	16.13
638.95554	11.93
638.97259	-0.67
638.98963	7.98
639.00668	13.28
639.02372	9.98
639.04075	17.88
639.05779	16.83
639.07482	10.98
639.09185	14.08
639.10888	-17.37
639.12591	-19.47
639.14293	-7.42
639.15995	-3.67
639.17697	26.53
639.19398	33.58
639.211	38.93
639.22801	24.13
639.24502	6.03
639.26202	5.58
639.27903	1.28
639.29603	14.03
639.31303	29.73
639.33002	6.23
639.34702	10.38
639.36401	8.13
639.381	6.63
639.39798	15.23
639.41497	21.28
639.43195	27.83
639.44893	13.43
639.4659	24.53
639.48288	28.43
639.49985	33.13
639.51682	25.88
639.53379	11.48
639.55075	16.53
639.56771	11.13
639.58467	32.63
639.60163	65.43
639.61858	77.98
639.63553	99.73
639.65248	130.08
639.66943	173.63
639.68638	347.78
639.70332	1292.98
639.72026	4740.78
639.73719	9682.53
639.75413	9678.23
639.77106	4684.13
639.78799	1512.18
639.80492	588.13
639.82184	265.43
639.83877	144.28
639.85569	98.48
639.8726	69.73
639.88952	59.13
639.90643	27.23
639.92334	29.53
639.94025	30.13
639.95716	32.53
639.97406	23.48
639.99096	29.88
640.00786	24.48
640.02475	17.03
640.04165	10.33
640.05854	13.33
640.07542	13.63
640.09231	23.28
640.10919	21.48
640.12607	20.63
640.14295	-1.27
640.15983	1.38
640.1767	3.73
640.19357	-4.67
640.21044	-2.02
640.22731	13.23
640.24417	15.83
640.26103	17.38
640.27789	20.68
640.29475	3.68
640.3116	-15.12
640.32845	-5.77
640.3453	5.48
640.36215	-2.62
640.37899	0.43
640.39583	28.23
640.41267	36.68
640.42951	1.03
640.44634	-22.97
640.46317	-2.42
640.48	-4.37
640.49683	-11.62
640.51365	-11.62
640.53048	-2.57
640.5473	3.28
640.56411	2.43
640.58093	14.68
640.59774	20.43
640.61455	-1.87
640.63136	-2.07
640.64816	-7.62
640.66496	-4.02
640.68176	12.98
640.69856	-11.92
640.71535	-6.12
640.73215	-4.37
640.74894	-6.92
640.76572	16.38
640.78251	16.13
640.79929	2.78
640.81607	6.63
640.83285	1.43
640.84963	6.98
640.8664	14.83
640.88317	28.93
640.89994	6.78
640.9167	-0.02
640.93346	-9.87
640.95022	-11.12
640.96698	-4.02
640.98374	-9.52
641.00049	-14.17
641.01724	-13.82
641.03399	-19.47
641.05074	-19.02
641.06748	-14.87
641.08422	3.18
641.10096	-3.12
641.11769	11.43
641.13443	0.58
641.15116	-5.92
641.16789	-7.12
641.18461	-8.62
641.20134	21.38
641.21806	17.33
641.23478	-3.32
641.25149	-1.67
641.26821	11.63
641.28492	-0.72
641.30163	0.43
641.31833	-11.67
641.33504	-4.07
641.35174	-6.77
641.36844	3.73
641.38514	3.18
641.40183	0.68
641.41852	1.78
641.43521	5.53
641.4519	33.13
641.46858	13.98
641.48526	-4.17
641.50194	-2.17
641.51862	-14.17
641.53529	-6.17
641.55197	12.83
641.56864	20.28
641.5853	-1.82
641.60197	-4.22
641.61863	4.98
641.63529	-14.97
641.65195	-11.02
641.6686	5.18
641.68526	6.68
641.70191	11.33
641.71855	21.23
641.7352	17.83
641.75184	-0.22
641.76848	-4.12
641.78512	-4.02
641.80175	-6.87
641.81839	13.98
641.83502	20.83
641.85164	12.18
641.86827	18.08
641.88489	6.73
641.90151	-6.17
641.91813	-3.87
641.93475	6.73
641.95136	2.03
641.96797	-11.07
641.98458	-22.37
642.00119	-0.12
642.01779	6.58
642.03439	4.03
642.05099	-3.27
642.06758	-18.22
642.08418	-3.32
642.10077	-0.02
642.11736	6.08
642.13394	0.08
642.15053	-1.52
642.16711	-6.77
642.18369	-10.82
642.20026	6.58
642.21684	20.28
642.23341	20.03
642.24998	11.48
642.26654	18.43
642.28311	12.68
642.29967	-5.62
642.31623	-16.02
642.33279	-1.17
642.34934	-8.12
642.36589	-21.82
642.38244	-24.82
642.39899	74.63
642.41553	190.18
642.43207	20.48
642.44861	-24.02
642.46515	-8.92
642.48169	4.13
642.49822	-1.72
642.51475	0.03
642.53127	-7.17
642.5478	-4.17
642.56432	10.43
642.58084	8.23
642.59736	0.28
642.61387	10.73
642.63039	16.43
642.6469	12.53
642.6634	25.83
642.67991	1.68
642.69641	4.13
642.71291	-9.37
642.72941	9.03
642.74591	19.43
642.7624	-0.92
642.77889	0.13
642.79538	-12.52
642.81186	-19.27
642.82834	-21.17
642.84483	-14.02
642.8613	-6.27
642.87778	-15.32
642.89425	6.03
642.91072	40.43
642.92719	-5.37
642.94366	1.68
642.96012	21.08
642.97658	1.03
642.99304	-0.37
643.0095	0.58
643.02595	-7.57
643.0424	-8.82
643.05885	3.33
643.0753	-13.87
643.09174	-17.72
643.10818	-15.57
643.12462	-14.17
643.14106	-7.72
643.15749	-7.02
643.17392	0.08
643.19035	29.78
643.20678	24.13
643.2232	-0.92
643.23962	13.53
643.25604	1.03
643.27246	-9.62
643.28887	-5.47
643.30528	5.43
643.32169	14.88
643.3381	1.68
643.35451	5.03
643.37091	12.78
643.38731	4.83
643.4037	-9.82
643.4201	-7.77
643.43649	8.18
643.45288	20.03
643.46927	2.38
643.48565	-6.02
643.50204	5.68
643.51842	5.88
643.53479	-7.32
643.55117	6.08
643.56754	-1.07
643.58391	1.28
643.60028	-4.02
643.61664	3.38
643.63301	6.13
643.64937	7.73
643.66572	0.33
643.68208	-10.32
643.69843	-4.97
643.71478	-14.37
643.73113	-7.02
643.74748	-9.02
643.76382	-1.62
643.78016	-9.77
643.7965	6.13
643.81283	8.03
643.82917	12.53
643.8455	-4.87
643.86183	15.58
643.87815	23.48
643.89448	16.23
643.9108	13.28
643.92712	6.88
643.94343	9.23
643.95974	-17.07
643.97606	-16.47
643.99236	4.98
644.00867	15.18
644.02497	3.68
644.04128	1.88
644.05758	8.28
644.07387	11.78
644.09017	2.23
644.10646	4.63
644.12275	1.43
644.13903	-4.32
644.15532	-5.07
644.1716	-7.27
644.18788	27.18
644.20415	6.28
644.22043	-1.47
644.2367	3.93
644.25297	-3.27
644.26924	3.13
644.2855	4.03
644.30176	-4.42
644.31802	-1.57
644.33428	14.13
644.35054	23.93
644.36679	2.78
644.38304	-4.47
644.39928	2.83
644.41553	10.53
644.43177	-6.42
644.44801	-18.32
644.46425	-14.07
644.48048	-0.27
644.49672	-0.82
644.51295	0.48
644.52917	-1.47
644.5454	13.58
644.56162	-0.02
644.57784	6.73
644.59406	0.43
644.61028	-0.12
644.62649	-2.47
644.6427	4.08
644.65891	-6.12
644.67511	-20.82
644.69132	-8.92
644.70752	-2.92
644.72372	5.88
644.73991	-3.77
644.7561	0.93
644.7723	9.38
644.78848	20.73
644.80467	10.28
644.82085	-6.32
644.83703	4.53
644.85321	13.93
644.86939	12.13
644.88556	12.18
644.90173	17.23
644.9179	23.23
644.93407	12.63
644.95023	20.78
644.96639	1.43
644.98255	2.78
644.99871	-2.22
645.01486	-6.12
645.03102	7.98
645.04716	14.53
645.06331	9.58
645.07946	50.08
645.0956	107.98
645.11174	15.53
645.12787	16.98
645.14401	0.33
645.16014	9.08
645.17627	1.73
645.1924	3.08
645.20852	17.58
645.22464	6.33
645.24076	23.83
645.25688	33.83
645.27299	14.48
645.28911	10.93
645.30522	-1.32
645.32132	5.23
645.33743	12.83
645.35353	13.28
645.36963	-1.87
645.38573	3.43
645.40182	8.78
645.41792	4.28
645.43401	-5.37
645.45009	6.53
645.46618	13.18
645.48226	0.13
645.49834	5.63
645.51442	-12.77
645.5305	-2.87
645.54657	5.53
645.56264	7.08
645.57871	-1.37
645.59477	9.53
645.61084	1.88
645.6269	13.63
645.64296	15.23
645.65901	11.28
645.67507	11.93
645.69112	2.18
645.70716	-3.07
645.72321	-5.77
645.73925	3.93
645.7553	3.33
645.77133	-11.62
645.78737	-3.32
645.8034	21.03
645.81944	30.23
645.83546	0.83
645.85149	31.58
645.86751	9.63
645.88354	-2.47
645.89955	-6.07
645.91557	-0.77
645.93159	-8.77
645.9476	-2.47
645.96361	-0.02
645.97961	6.88
645.99562	12.03
646.01162	17.48
646.02762	3.78
646.04361	-0.42
646.05961	-11.57
646.0756	-7.82
646.09159	7.88
646.10758	-9.32
646.12356	4.23
646.13954	13.68
646.15552	1.93
646.1715	15.98
646.18748	13.88
646.20345	5.48
646.21942	-6.82
646.23539	18.13
646.25135	29.68
646.26731	3.63
646.28327	13.63
646.29923	0.83
646.31519	19.98
646.33114	28.28
646.34709	18.28
646.36304	0.23
646.37898	-11.72
646.39493	-18.77
646.41087	-6.22
646.4268	-1.67
646.44274	-9.27
646.45867	-7.52
646.4746	10.38
646.49053	2.03
646.50646	-8.52
646.52238	-25.97
646.5383	-12.47
646.55422	-9.22
646.57014	-4.42
646.58605	-4.97
646.60196	5.58
646.61787	2.03
646.63377	3.28
646.64968	5.23
646.66558	-2.32
646.68148	-12.77
646.69737	2.38
646.71327	-3.12
646.72916	-6.52
646.74505	-2.82
646.76093	16.08
646.77682	10.43
646.7927	-3.87
646.80858	-1.32
646.82446	-15.92
646.84033	-7.22
646.8562	-6.52
646.87207	-2.92
646.88794	8.13
646.9038	-11.47
646.91966	-5.87
646.93552	-0.92
646.95138	-7.92
646.96723	-0.02
646.98309	17.43
646.99894	4.38
647.01478	1.98
647.03063	19.03
647.04647	-0.17
647.06231	-13.47
647.07815	-14.67
647.09398	-10.02
647.10981	-0.22
647.12564	-11.42
647.14147	2.43
647.1573	22.83
647.17312	0.63
647.18894	-4.87
647.20476	-21.07
647.22057	-27.32
647.23638	-10.22
647.25219	-3.57
647.268	-12.57
647.28381	-10.22
647.29961	10.83
647.31541	3.08
647.33121	-3.42
647.34701	5.38
647.3628	2.38
647.37859	8.53
647.39438	4.58
647.41016	2.58
647.42595	-1.57
647.44173	-1.27
647.45751	-3.02
647.47328	2.13
647.48905	1.23
647.50483	15.98
647.52059	4.93
647.53636	-3.72
647.55212	-15.12
647.56789	11.08
647.58364	59.18
647.5994	6.83
647.61515	-0.27
647.63091	6.23
647.64665	2.18
647.6624	-2.37
647.67814	-14.42
647.69389	-22.12
647.70963	-9.02
647.72536	-25.52
647.7411	-20.92
647.75683	-10.12
647.77256	-0.42
647.78828	1.13
647.80401	-3.22
647.81973	1.43
647.83545	7.48
647.85117	2.18
647.86688	-6.22
647.88259	-8.02
647.8983	2.48
647.91401	18.13
647.92971	16.93
647.94542	-6.27
647.96112	2.73
647.97681	8.78
647.99251	-4.37
648.0082	7.73
648.02389	5.03
648.03958	-11.27
648.05526	-6.67
648.07095	-6.62
648.08663	-3.32
648.1023	-16.02
648.11798	-15.52
648.13365	-16.82
648.14932	-5.07
648.16499	0.28
648.18066	-8.22
648.19632	-14.07
648.21198	-8.67
648.22764	-7.02
648.24329	-2.82
648.25895	6.03
648.2746	-8.92
648.29025	-5.72
648.30589	-0.42
648.32153	-2.72
648.33718	-8.97
648.35281	14.68
648.36845	41.38
648.38408	90.18
648.39971	6.08
648.41534	-10.57
648.43097	-0.92
648.44659	1.48
648.46221	7.13
648.47783	7.23
648.49345	-15.37
648.50906	1.38
648.52467	8.03
648.54028	-14.97
648.55589	-11.47
648.57149	12.03
648.5871	1.03
648.6027	-6.27
648.61829	3.58
648.63389	1.28
648.64948	7.48
648.66507	7.23
648.68065	-8.47
648.69624	2.13
648.71182	26.18
648.7274	27.28
648.74298	25.13
648.75855	34.18
648.77412	25.33
648.78969	-3.17
648.80526	-17.92
648.82083	-6.57
648.83639	3.08
648.85195	-7.67
648.8675	-5.27
648.88306	0.13
648.89861	-6.52
648.91416	-7.57
648.92971	5.28
648.94526	16.53
648.9608	23.63
648.97634	12.83
648.99188	4.18
649.00741	4.98
649.02294	0.68
649.03847	1.68
649.054	-12.42
649.06953	3.88
649.08505	-7.77
649.10057	3.43
649.11609	-10.62
649.13161	2.58
649.14712	-1.87
649.16263	-5.57
649.17814	-4.87
649.19364	2.88
649.20915	30.73
649.22465	31.33
649.24015	24.03
649.25564	28.78
649.27114	11.18
649.28663	-1.47
649.30212	-5.27
649.3176	-2.82
649.33309	-15.27
649.34857	-1.97
649.36405	9.33
649.37952	15.53
649.395	9.73
649.41047	18.73
649.42594	14.28
649.4414	-4.17
649.45687	1.38
649.47233	-13.62
649.48779	3.08
649.50324	14.43
649.5187	14.48
649.53415	11.18
649.5496	12.78
649.56505	13.88
649.58049	11.63
649.59593	6.08
649.61137	6.08
649.62681	14.08
649.64224	1.53
649.65768	-7.37
649.67311	17.28
649.68853	23.18
649.70396	14.43
649.71938	19.48
649.7348	9.38
649.75022	30.38
649.76563	8.58
649.78105	12.78
649.79646	-2.27
649.81186	13.98
649.82727	25.83
649.84267	2.78
649.85807	8.98
649.87347	-1.52
649.88886	5.38
649.90426	12.98
649.91965	6.68
649.93504	-4.47
649.95042	16.53
649.9658	-1.22
649.98119	5.23
649.99656	17.93
650.01194	10.53
650.02731	12.43
650.04268	14.68
650.05805	17.58
650.07342	27.98
650.08878	52.88
650.10414	98.98
650.1195	268.23
650.13486	1158.33
650.15021	3134.18
650.16556	4745.63
650.18091	4325.83
650.19626	3033.13
650.2116	2207.18
650.22694	1382.08
650.24228	810.28
650.25762	413.93
650.27295	207.93
650.28828	105.68
650.30361	68.33
650.31894	35.23
650.33426	20.78
650.34958	19.38
650.3649	54.38
650.38022	30.08
650.39553	1.88
650.41085	6.08
650.42616	10.93
650.44146	13.33
650.45677	10.53
650.47207	11.33
650.48737	21.78
650.50267	-4.07
650.51796	-11.67
650.53325	2.23
650.54854	17.28
650.56383	17.13
650.57911	9.48
650.5944	5.68
650.60968	6.93
650.62495	9.28
650.64023	6.93
650.6555	-7.52
650.67077	-6.42
650.68604	-1.22
650.70131	10.98
650.71657	7.93
650.73183	17.23
650.74709	10.08
650.76234	3.18
650.77759	10.78
650.79285	9.53
650.80809	7.08
650.82334	3.63
650.83858	3.98
650.85382	5.58
650.86906	13.73
650.8843	28.38
650.89953	6.33
650.91476	-0.22
650.92999	-7.67
650.94522	-3.02
650.96044	6.53
650.97566	4.18
650.99088	-2.57
651.00609	-9.32
651.02131	-9.07
651.03652	1.88
651.05173	2.18
651.06693	-24.82
651.08214	-14.72
651.09734	-14.02
651.11254	-11.07
651.12773	-10.57
651.14293	7.63
651.15812	-6.07
651.17331	-0.12
651.1885	16.43
651.20368	-9.02
651.21886	-15.62
651.23404	6.93
651.24922	11.43
651.26439	2.93
651.27956	1.13
651.29473	-9.02
651.3099	10.23
651.32507	-24.72
651.34023	-7.47
651.35539	-7.07
651.37054	-19.37
651.3857	-31.42
651.40085	-8.37
651.416	3.33
651.43115	-3.02
651.44629	-8.87
651.46144	-19.12
651.47658	2.68
651.49171	22.78
651.50685	10.23
651.52198	1.28
651.53711	-3.27
651.55224	-12.97
651.56736	-4.22
651.58249	9.83
651.59761	12.53
651.61273	-21.37
651.62784	-3.92
651.64295	-7.37
651.65806	-9.52
651.67317	-9.97
651.68828	-6.87
651.70338	3.03
651.71848	15.13
651.73358	27.18
651.74868	-7.92
651.76377	-3.82
651.77886	-0.72
651.79395	-5.07
651.80904	-16.37
651.82412	4.53
651.8392	-4.67
651.85428	2.58
651.86935	7.68
651.88443	10.63
651.8995	1.68
651.91457	-9.22
651.92963	-2.17
651.9447	24.13
651.95976	11.93
651.97482	2.58
651.98988	2.28
652.00493	-8.77
652.01998	-2.02
652.03503	18.18
652.05008	36.23
652.06512	91.53
652.08016	1.88
652.0952	0.33
652.11024	34.48
652.12527	7.73
652.14031	2.63
652.15534	5.18
652.17036	9.53
652.18539	-2.77
652.20041	9.93
652.21543	5.58
652.23045	-9.47
652.24546	-2.67
652.26047	10.43
652.27548	8.48
652.29049	7.18
652.3055	-2.07
652.3205	7.93
652.3355	2.73
652.3505	-5.57
652.36549	-0.62
652.38048	11.08
652.39547	11.08
652.41046	3.28
652.42545	19.68
652.44043	21.28
652.45541	3.03
652.47039	12.08
652.48536	2.93
652.50034	-15.92
652.51531	-14.97
652.53028	-3.82
652.54524	-1.92
652.5602	-5.57
652.57517	-13.62
652.59012	30.88
652.60508	88.13
652.62003	12.73
652.63498	-12.22
652.64993	-14.22
652.66488	-7.42
652.67982	6.73
652.69476	11.08
652.7097	-1.42
652.72464	2.63
652.73957	35.88
652.7545	120.88
652.76943	476.03
652.78436	1181.03
652.79928	1770.38
652.8142	1650.98
652.82912	1129.58
652.84404	827.53
652.85895	565.48
652.87387	380.98
652.88877	242.48
652.90368	136.38
652.91859	45.13
652.93349	23.73
652.94839	14.63
652.96328	13.08
652.97818	1.88
652.99307	2.73
653.00796	14.38
653.02285	-0.72
653.03773	3.58
653.05261	-7.17
653.06749	-6.57
653.08237	-10.72
653.09725	-2.12
653.11212	4.23
653.12699	-4.77
653.14186	15.73
653.15672	30.73
653.17158	1.08
653.18644	13.78
653.2013	6.68
653.21616	11.63
653.23101	17.63
653.24586	-8.47
653.26071	-20.62
653.27555	13.23
653.29039	18.28
653.30524	-4.87
653.32007	-2.12
653.33491	180.08
653.34974	442.93
653.36457	31.68
653.3794	-6.92
653.39423	-10.72
653.40905	-9.32
653.42387	-10.12
653.43869	-5.67
653.45351	-10.37
653.46832	-19.62
653.48313	-15.32
653.49794	-5.12
653.51274	9.03
653.52755	12.48
653.54235	3.43
653.55715	-19.12
653.57194	-9.07
653.58674	3.33
653.60153	-0.17
653.61632	-10.67
653.6311	-19.32
653.64589	-14.07
653.66067	5.28
653.67545	-1.07
653.69023	-15.27
653.705	-17.07
653.71977	-14.67
653.73454	-12.27
653.74931	-11.37
653.76407	-0.07
653.77883	3.23
653.79359	6.58
653.80835	-2.12
653.8231	-2.87
653.83786	0.43
653.85261	18.18
653.86735	6.58
653.8821	43.33
653.89684	1.63
653.91158	-3.22
653.92632	15.08
653.94105	6.93
653.95579	7.38
653.97052	-12.22
653.98524	-17.72
653.99997	-9.02
654.01469	-4.57
654.02941	4.23
654.04413	12.73
654.05884	0.13
654.07356	14.93
654.08827	69.03
654.10297	146.58
654.11768	23.98
654.13238	22.88
654.14708	11.53
654.16178	-6.82
654.17648	-4.97
654.19117	-24.77
654.20586	-22.97
654.22055	-2.12
654.23524	0.93
654.24992	42.43
654.2646	77.33
654.27928	28.93
654.29395	15.48
654.30863	24.38
654.3233	26.08
654.33797	6.43
654.35263	8.28
654.3673	13.68
654.38196	9.58
654.39662	-12.22
654.41127	-3.12
654.42593	5.13
654.44058	7.98
654.45523	-8.72
654.46987	-10.22
654.48452	1.08
654.49916	5.03
654.5138	5.23
654.52844	-0.62
654.54307	5.23
654.5577	23.13
654.57233	4.98
654.58696	5.43
654.60158	4.98
654.6162	1.48
654.63082	-4.42
654.64544	2.98
654.66005	-3.22
654.67467	-4.67
654.68928	6.68
654.70388	7.83
654.71849	8.98
654.73309	50.13
654.74769	122.38
654.76229	5.88
654.77688	9.73
654.79148	-1.67
654.80607	-7.07
654.82065	17.08
654.83524	9.18
654.84982	3.38
654.8644	-3.97
654.87898	-8.72
654.89355	-3.22
654.90813	-0.02
654.9227	-7.17
654.93727	-9.82
654.95183	-5.32
654.96639	-2.17
654.98095	3.53
654.99551	-5.57
655.01007	10.33
655.02462	-11.72
655.03917	-11.97
655.05372	-12.52
655.06827	-7.82
655.08281	3.73
655.09735	-5.02
655.11189	-9.32
655.12643	-11.52
655.14096	-6.77
655.15549	5.23
655.17002	-12.82
655.18454	-10.12
655.19907	-3.27
655.21359	16.73
655.22811	22.63
655.24262	5.48
655.25714	-1.42
655.27165	-0.77
655.28616	-19.32
655.30067	-14.82
655.31517	-7.92
655.32967	-9.62
655.34417	-8.02
655.35867	-9.77
655.37316	-7.02
655.38765	-15.37
655.40214	1.18
655.41663	7.08
655.43111	4.53
655.4456	13.33
655.46008	-17.77
655.47455	-13.62
655.48903	-6.52
655.5035	-7.82
655.51797	-8.92
655.53244	1.78
655.5469	14.53
655.56136	28.58
655.57582	-0.97
655.59028	-6.92
655.60474	-18.52
655.61919	-9.22
655.63364	20.08
655.64809	28.18
655.66253	0.48
655.67697	-7.32
655.69141	7.28
655.70585	1.33
655.72029	-4.42
655.73472	-9.82
655.74915	-12.57
655.76358	-8.42
655.778	1.13
655.79243	28.48
655.80685	8.03
655.82127	-7.02
655.83568	2.28
655.8501	28.53
655.86451	12.43
655.87891	11.28
655.89332	3.83
655.90772	-9.02
655.92212	-10.87
655.93652	16.63
655.95092	7.78
655.96531	-2.92
655.9797	-10.07
655.99409	4.78
656.00848	-3.02
656.02286	12.28
656.03724	11.08
656.05162	-1.82
656.066	-17.62
656.08037	-12.92
656.09475	-5.32
656.10911	-9.97
656.12348	-1.67
656.13784	8.93
656.15221	1.53
656.16657	18.03
656.18092	8.23
656.19528	14.73
656.20963	1.88
656.22398	-6.52
656.23833	10.38
656.25267	15.58
656.26701	17.48
656.28135	-10.07
656.29569	-4.62
656.31002	13.98
656.32436	26.98
656.33869	23.18
656.35301	0.08
656.36734	2.88
656.38166	-9.62
656.39598	-16.32
656.4103	-16.32
656.42461	-6.82
656.43892	-5.07
656.45323	-11.17
656.46754	-1.37
656.48185	-2.72
656.49615	-5.22
656.51045	1.98
656.52475	-0.17
656.53904	-4.62
656.55334	-11.57
656.56763	-6.52
656.58192	-1.27
656.5962	-0.67
656.61048	-11.92
656.62476	-6.67
656.63904	-3.17
656.65332	4.48
656.66759	-6.17
656.68186	-8.47
656.69613	0.33
656.7104	-2.47
656.72466	8.88
656.73892	7.28
656.75318	16.83
656.76744	-5.52
656.78169	-1.47
656.79594	19.53
656.81019	44.08
656.82444	-10.47
656.83868	-2.52
656.85292	-2.72
656.86716	2.98
656.8814	6.43
656.89563	-2.02
656.90986	-8.22
656.92409	-3.17
656.93832	3.33
656.95254	3.08
656.96676	3.38
656.98098	21.53
656.9952	-1.72
657.00941	2.13
657.02363	-18.27
657.03784	-15.47
657.05204	-5.47
657.06625	25.58
657.08045	-3.92
657.09465	-1.32
657.10885	-21.07
657.12304	-8.57
657.13723	-5.92
657.15142	-2.77
657.16561	-10.37
657.1798	-15.42
657.19398	-34.57
657.20816	-11.47
657.22234	-8.77
657.23651	-7.27
657.25068	-5.17
657.26485	-0.37
657.27902	-9.47
657.29319	-20.02
657.30735	-4.77
657.32151	-11.32
657.33567	4.03
657.34982	29.43
657.36398	11.13
657.37813	8.33
657.39227	-11.82
657.40642	12.88
657.42056	20.38
657.4347	-1.12
657.44884	1.98
657.46298	-0.62
657.47711	14.93
657.49124	18.48
657.50537	-10.37
657.5195	-5.02
657.53362	-11.07
657.54774	-6.72
657.56186	23.43
657.57598	33.18
657.59009	5.33
657.6042	5.98
657.61831	0.33
657.63242	1.13
657.64652	1.98
657.66062	5.58
657.67472	13.63
657.68882	7.18
657.70291	-2.92
657.717	-0.67
657.73109	1.68
657.74518	8.68
657.75926	-8.52
657.77335	-15.67
657.78742	-7.62
657.8015	-8.67
657.81558	1.73
657.82965	3.28
657.84372	-11.57
657.85778	4.23
657.87185	-9.67
657.88591	-1.37
657.89997	-6.42
657.91403	8.78
657.92808	14.08
657.94214	2.68
657.95618	4.53
657.97023	-4.72
657.98428	4.13
657.99832	42.88
658.01236	4.78
658.0264	-23.77
658.04043	-7.42
658.05447	0.73
658.0685	-20.37
658.08252	-16.82
658.09655	-0.12
658.11057	13.98
658.12459	17.83
658.13861	27.43
658.15263	4.98
658.16664	23.78
658.18065	6.98
658.19466	-9.27
658.20866	-19.77
658.22267	-14.22
658.23667	5.33
658.25067	3.53
658.26466	1.63
658.27865	3.08
658.29265	-0.27
658.30663	2.38
658.32062	-4.02
658.3346	-1.47
658.34858	-0.57
658.36256	1.63
658.37654	-6.32
658.39051	8.08
658.40448	13.88
658.41845	5.43
658.43242	-3.12
658.44638	-15.32
658.46035	-15.77
658.4743	-1.77
658.48826	6.83
658.50221	15.13
658.51617	1.68
658.53012	-13.52
658.54406	-12.22
658.55801	-3.32
658.57195	-11.12
658.58589	11.38
658.59983	9.08
658.61376	-15.22
658.62769	-11.07
658.64162	9.63
658.65555	8.43
658.66947	-5.12
658.6834	34.43
658.69731	108.63
658.71123	10.53
658.72515	7.63
658.73906	0.63
658.75297	4.48
658.76688	-2.72
658.78078	8.58
658.79468	-3.77
658.80858	-16.12
658.82248	-7.32
658.83638	-0.77
658.85027	13.33
658.86416	3.38
658.87805	0.38
658.89193	-14.37
658.90582	-3.17
658.9197	1.73
658.93357	1.98
658.94745	-3.32
658.96132	-16.42
658.97519	2.73
658.98906	-17.92
659.00293	-16.02
659.01679	-12.32
659.03065	-6.32
659.04451	8.28
659.05837	1.83
659.07222	-0.82
659.08607	1.23
659.09992	12.83
659.11377	8.78
659.12761	-8.82
659.14145	0.53
659.15529	9.63
659.16913	9.03
659.18296	7.68
659.19679	-5.82
659.21062	2.88
659.22445	5.08
659.23827	41.03
659.25209	28.53
659.26591	13.48
659.27973	18.33
659.29354	6.38
659.30735	-1.07
659.32116	13.53
659.33497	14.68
659.34877	14.03
659.36258	112.43
659.37637	453.13
659.39017	1069.28
659.40397	1601.73
659.41776	1593.93
659.43155	1109.68
659.44533	760.83
659.45912	618.98
659.4729	438.18
659.48668	331.78
659.50046	221.63
659.51423	141.13
659.52801	99.23
659.54178	69.28
659.55554	25.93
659.56931	22.28
659.58307	15.58
659.59683	15.38
659.61059	12.13
659.62434	53.98
659.6381	100.68
659.65185	1.23
659.6656	-13.37
659.67934	-2.12
659.69308	-1.37
659.70682	6.88
659.72056	7.88
659.7343	9.33
659.74803	-4.02
659.76176	-6.02
659.77549	-1.97
659.78922	20.18
659.80294	-18.47
659.81666	-16.17
659.83038	0.73
659.84409	2.63
659.85781	-6.42
659.87152	-5.77
659.88523	-3.67
659.89893	-3.72
659.91264	7.43
659.92634	21.08
659.94004	8.23
659.95373	6.33
659.96743	6.83
659.98112	8.43
659.99481	6.08
660.00849	-0.42
660.02218	7.33
660.03586	9.03
660.04954	-15.22
660.06322	-5.47
660.07689	18.63
660.09056	26.88
660.10423	-17.77
660.1179	-2.77
660.13156	11.83
660.14522	0.13
660.15888	-5.32
660.17254	-4.27
660.1862	7.28
660.19985	-5.87
660.2135	-13.97
660.22714	-1.37
660.24079	-4.72
660.25443	-10.22
660.26807	-1.32
660.28171	8.53
660.29534	6.18
660.30898	0.73
660.32261	-9.37
660.33623	-23.02
660.34986	-26.07
660.36348	4.38
660.3771	1.83
660.39072	23.53
660.40433	16.83
660.41795	10.23
660.43156	-7.92
660.44517	1.38
660.45877	5.28
660.47237	-6.52
660.48598	-6.57
660.49957	-5.12
660.51317	-1.97
660.52676	-3.87
660.54035	8.13
660.55394	15.08
660.56753	1.83
660.58111	13.68
660.59469	22.03
660.60827	-12.17
660.62185	-2.27
660.63542	7.48
660.64899	11.38
660.66256	16.53
660.67613	12.23
660.68969	14.93
660.70325	9.73
660.71681	-7.82
660.73037	-16.42
660.74392	-1.47
660.75747	-4.32
660.77102	-2.67
660.78457	-7.67
660.79811	7.28
660.81165	12.58
660.82519	5.73
660.83873	-4.82
660.85226	5.68
660.86579	14.58
660.87932	5.23
660.89285	-4.17
660.90637	14.38
660.9199	9.68
660.93342	3.23
660.94693	9.68
660.96045	-8.72
660.97396	4.43
660.98747	20.23
661.00098	-5.42
661.01448	-13.97
661.02798	-7.57
661.04148	0.88
661.05498	16.33
661.06848	1.43
661.08197	-11.57
661.09546	20.98
661.10895	46.58
661.12243	5.43
661.13591	-1.97
661.14939	-21.47
661.16287	-10.27
661.17635	10.88
661.18982	6.03
661.20329	32.18
661.21676	28.53
661.23022	3.78
661.24369	0.78
661.25715	5.08
661.27061	-4.57
661.28406	13.28
661.29752	-18.12
661.31097	-10.32
661.32441	-0.57
661.33786	-10.42
661.3513	-15.72
661.36474	-0.17
661.37818	1.23
661.39162	-2.67
661.40505	62.78
661.41848	172.43
661.43191	15.58
661.44534	-2.47
661.45876	3.13
661.47218	12.93
661.4856	11.18
661.49902	6.13
661.51243	-8.27
661.52585	11.43
661.53925	6.68
661.55266	2.88
661.56606	-2.27
661.57947	5.43
661.59287	-11.12
661.60626	-9.72
661.61966	3.48
661.63305	0.48
661.64644	1.93
661.65983	-2.97
661.67321	3.08
661.68659	0.28
661.69997	22.63
661.71335	9.73
661.72672	25.48
661.7401	64.58
661.75347	0.83
661.76683	2.18
661.7802	17.38
661.79356	23.73
661.80692	-10.37
661.82028	1.23
661.83363	-0.62
661.84698	-6.62
661.86033	4.33
661.87368	5.73
661.88703	4.43
661.90037	1.23
661.91371	-0.22
661.92705	-9.47
661.94038	-7.82
661.95372	0.28
661.96705	24.98
661.98038	29.78
661.9937	4.03
662.00702	-0.17
662.02034	12.83
662.03366	1.58
662.04698	1.73
662.06029	-8.42
662.0736	-15.27
662.08691	-9.42
662.10022	-2.32
662.11352	1.13
662.12682	6.93
662.14012	-21.87
662.15342	-2.02
662.16671	14.13
662.18	-6.12
662.19329	-5.12
662.20658	-9.92
662.21986	-5.47
662.23314	-1.47
662.24642	-12.72
662.2597	6.58
662.27297	1.98
662.28624	-11.12
662.29951	3.18
662.31278	-4.92
662.32604	-10.82
662.3393	-3.77
662.35256	-0.77
662.36582	-5.92
662.37907	-10.42
662.39233	-4.72
662.40558	5.18
662.41882	6.63
662.43207	12.18
662.44531	-2.22
662.45855	-13.22
662.47179	-7.02
662.48502	-5.62
662.49825	-4.82
662.51148	7.93
662.52471	8.48
662.53794	-7.52
662.55116	5.88
662.56438	-2.17
662.5776	-6.72
662.59081	8.78
662.60402	13.38
662.61723	-3.57
662.63044	6.43
662.64365	2.78
662.65685	-1.77
662.67005	13.93
662.68325	21.63
662.69644	-1.97
662.70964	-3.02
662.72283	6.63
662.73601	8.88
662.7492	12.18
662.76238	4.23
662.77556	2.03
662.78874	8.58
662.80192	14.58
662.81509	20.18
662.82826	5.43
662.84143	-15.67
662.8546	-3.67
662.86776	4.33
662.88092	-14.02
662.89408	-13.22
662.90724	5.13
662.92039	31.13
662.93354	-1.52
662.94669	-7.07
662.95984	-0.92
662.97298	-7.97
662.98612	-18.67
662.99926	-16.92
663.0124	8.08
663.02553	6.18
663.03866	4.98
663.05179	-1.17
663.06492	3.08
663.07804	10.38
663.09116	12.98
663.10428	-6.02
663.1174	-11.37
663.13052	-0.17
663.14363	2.48
663.15674	-16.57
663.16984	-3.27
663.18295	8.88
663.19605	10.48
663.20915	10.68
663.22225	11.98
663.23534	15.43
663.24843	-10.07
663.26152	-15.32
663.27461	-14.32
663.2877	-2.52
663.30078	-0.27
663.31386	2.58
663.32694	3.03
663.34001	16.18
663.35308	11.03
663.36615	-7.17
663.37922	14.23
663.39229	23.53
663.40535	-16.22
663.41841	-19.52
663.43147	-9.52
663.44452	4.63
663.45758	6.88
663.47063	9.03
663.48368	6.33
663.49672	3.53
663.50977	-16.82
663.52281	-5.52
663.53584	-4.22
663.54888	-16.82
663.56191	-15.27
663.57494	-17.52
663.58797	-16.47
663.601	-9.57
663.61402	-3.17
663.62704	7.43
663.64006	-1.12
663.65308	-4.62
663.66609	-12.27
663.6791	-16.32
663.69211	19.33
663.70512	27.13
663.71812	-4.27
663.73112	-10.12
663.74412	-5.07
663.75712	10.43
663.77011	0.78
663.78311	0.23
663.79609	10.48
663.80908	3.18
663.82207	-3.82
663.83505	-24.97
663.84803	-13.32
663.861	-5.12
663.87398	-0.57
663.88695	0.68
663.89992	-1.67
663.91289	-3.57
663.92585	1.93
663.93881	-10.27
663.95177	9.23
663.96473	36.63
663.97769	6.93
663.99064	-13.12
664.00359	-3.87
664.01654	14.78
664.02948	9.38
664.04242	2.58
664.05536	3.18
664.0683	5.38
664.08124	6.28
664.09417	9.58
664.1071	11.38
664.12003	9.38
664.13295	-4.37
664.14588	-7.42
664.1588	-5.47
664.17171	-5.47
664.18463	3.08
664.19754	-8.27
664.21045	11.53
664.22336	2.33
664.23627	9.43
664.24917	6.33
664.26207	-2.72
664.27497	-5.92
664.28787	9.08
664.30076	16.73
664.31365	1.33
664.32654	2.68
664.33942	-10.97
664.35231	-7.87
664.36519	-4.92
664.37807	-1.67
664.39094	7.98
664.40382	14.58
664.41669	12.53
664.42956	3.43
664.44242	-1.27
664.45529	-2.17
664.46815	-3.22
664.48101	5.03
664.49387	18.78
664.50672	-15.62
664.51957	-11.82
664.53242	4.58
664.54527	-0.12
664.55811	3.98
664.57095	-4.42
664.58379	-1.52
664.59663	-17.77
664.60946	-3.47
664.6223	12.88
664.63513	13.83
664.64795	9.23
664.66078	0.78
664.6736	-2.62
664.68642	-3.32
664.69924	-4.17
664.71205	6.58
664.72486	-0.37
664.73767	1.88
664.75048	13.88
664.76329	15.48
664.77609	4.48
664.78889	27.33
664.80169	9.18
664.81448	-6.72
664.82728	-4.87
664.84007	2.33
664.85285	-8.82
664.86564	2.43
664.87842	-9.42
664.8912	-8.27
664.90398	14.03
664.91676	14.88
664.92953	0.38
664.9423	12.18
664.95507	15.03
664.96783	12.18
664.9806	12.78
664.99336	-3.32
665.00612	3.48
665.01887	13.63
665.03163	9.58
665.04438	16.53
665.05713	23.83
665.06987	-5.42
665.08262	-20.07
665.09536	-11.22
665.1081	-1.27
665.12083	-1.67
665.13357	-7.47
665.1463	18.53
665.15903	11.43
665.17175	19.38
665.18448	-0.97
665.1972	1.13
665.20992	-0.67
665.22263	3.23
665.23535	34.73
665.24806	74.58
665.26077	2.48
665.27348	-8.27
665.28618	14.63
665.29888	11.78
665.31158	-8.92
665.32428	18.78
665.33697	9.78
665.34967	0.18
665.36236	-2.52
665.37504	3.13
665.38773	3.03
665.40041	20.28
665.41309	11.83
665.42577	6.28
665.43844	-7.32
665.45111	1.18
665.46378	-0.57
665.47645	2.88
665.48912	14.98
665.50178	8.13
665.51444	-4.57
665.5271	9.83
665.53975	-1.57
665.55241	-11.37
665.56506	-6.52
665.5777	-7.82
665.59035	5.58
665.60299	13.58
665.61563	13.88
665.62827	13.43
665.64091	-0.47
665.65354	-11.57
665.66617	0.53
665.6788	5.43
665.69142	22.53
665.70405	14.88
665.71667	-8.97
665.72929	-7.52
665.7419	3.43
665.75452	-13.82
665.76713	-6.72
665.77974	-3.37
665.79234	21.88
665.80495	12.43
665.81755	7.63
665.83015	-14.27
665.84274	5.73
665.85534	-7.57
665.86793	-5.42
665.88052	3.73
665.8931	14.68
665.90569	-2.07
665.91827	-5.27
665.93085	-14.92
665.94343	10.68
665.956	8.48
665.96857	-11.72
665.98114	-12.22
665.99371	-25.52
666.00627	-28.47
666.01883	-11.77
666.03139	15.63
666.04395	11.63
666.05651	17.23
666.06906	20.58
666.08161	2.83
666.09415	1.48
666.1067	-0.42
666.11924	2.08
666.13178	-3.67
666.14432	-5.02
666.15685	-11.82
666.16939	-5.87
666.18192	-2.32
666.19444	-0.72
666.20697	12.43
666.21949	22.18
666.23201	16.53
666.24453	1.38
666.25705	16.73
666.26956	3.63
666.28207	6.08
666.29458	-0.42
666.30708	-3.92
666.31959	-2.12
666.33209	10.78
666.34458	5.98
666.35708	7.78
666.36957	14.78
666.38206	12.58
666.39455	11.13
666.40704	-0.97
666.41952	8.78
666.432	6.43
666.44448	11.53
666.45696	-6.92
666.46943	-2.52
666.4819	3.03
666.49437	10.83
666.50684	12.53
666.5193	-4.07
666.53176	-20.52
666.54422	-11.32
666.55668	8.88
666.56913	-1.62
666.58158	3.83
666.59403	14.68
666.60648	10.38
666.61892	2.88
666.63136	14.18
666.6438	10.23
666.65624	2.03
666.66867	12.48
666.68111	8.38
666.69354	10.93
666.70596	13.73
666.71839	-2.97
666.73081	1.98
666.74323	-3.72
666.75565	14.33
666.76806	11.63
666.78047	-7.97
666.79288	-1.57
666.80529	9.83
666.81769	-2.02
666.8301	4.18
666.8425	6.48
666.85489	-8.42
666.86729	1.38
666.87968	-9.67
666.89207	-4.57
666.90446	11.13
666.91684	14.38
666.92923	-1.67
666.94161	14.43
666.95399	32.33
666.96636	8.28
666.97873	4.93
666.9911	-14.27
667.00347	2.03
667.01584	11.23
667.0282	13.68
667.04056	-11.12
667.05292	-2.22
667.06528	7.68
667.07763	-6.32
667.08998	7.18
667.10233	16.58
667.11467	-4.72
667.12702	-11.52
667.13936	-1.02
667.1517	25.63
667.16403	9.63
667.17637	5.38
667.1887	-5.52
667.20103	-11.07
667.21335	-10.42
667.22568	-1.77
667.238	10.03
667.25032	14.98
667.26263	28.88
667.27495	18.43
667.28726	42.88
667.29957	130.63
667.31188	394.48
667.32418	977.93
667.33648	1755.78
667.34878	2297.78
667.36108	2127.73
667.37337	1438.93
667.38566	992.63
667.39795	761.43
667.41024	565.13
667.42252	441.93
667.43481	326.58
667.44709	225.73
667.45936	161.03
667.47164	115.08
667.48391	77.88
667.49618	33.03
667.50845	13.48
667.52071	27.03
667.53297	20.08
667.54523	21.28
667.55749	13.13
667.56975	13.33
667.582	2.78
667.59425	11.73
667.6065	30.18
667.61874	9.28
667.63099	25.48
667.64323	23.73
667.65546	-6.12
667.6677	1.23
667.67993	4.18
667.69216	4.53
667.70439	-5.57
667.71662	-4.22
667.72884	6.38
667.74106	8.03
667.75328	5.98
667.76549	10.58
667.77771	4.88
667.78992	9.53
667.80213	7.93
667.81433	-6.42
667.82654	10.48
667.83874	14.08
667.85094	-15.47
667.86313	-16.37
667.87533	-12.82
667.88752	-4.17
667.89971	-0.57
667.91189	-2.57
667.92408	-7.82
667.93626	-4.07
667.94844	4.08
667.96061	14.03
667.97279	-0.92
667.98496	-0.42
667.99713	-6.32
668.0093	0.73
668.02146	15.88
668.03362	13.38
668.04578	1.38
668.05794	-18.82
668.07009	-7.47
668.08224	8.08
668.09439	33.08
668.10654	17.48
668.11868	15.88
668.13083	6.38
668.14297	0.88
668.1551	10.43
668.16724	10.08
668.17937	11.63
668.1915	-5.72
668.20363	-0.27
668.21575	3.23
668.22788	-0.82
668.24	9.18
668.25211	20.23
668.26423	27.53
668.27634	-2.32
668.28845	0.03
668.30056	-3.62
668.31266	-1.67
668.32477	1.83
668.33687	-9.42
668.34897	-12.77
668.36106	-2.97
668.37315	13.23
668.38524	0.83
668.39733	-0.32
668.40942	-12.62
668.4215	3.28
668.43358	-1.52
668.44566	-0.32
668.45774	3.73
668.46981	-7.92
668.48188	-1.07
668.49395	6.53
668.50602	14.73
668.51808	3.08
668.53014	1.78
668.5422	1.63
668.55425	1.68
668.56631	8.18
668.57836	-1.27
668.59041	10.33
668.60246	-2.87
668.6145	-10.67
668.62654	-10.42
668.63858	-1.12
668.65062	3.63
668.66265	15.13
668.67468	-8.97
668.68671	-0.47
668.69874	27.93
668.71076	7.98
668.72278	1.98
668.7348	0.18
668.74682	-1.72
668.75883	-2.92
668.77085	-14.02
668.78286	-20.67
668.79486	-4.62
668.80687	3.08
668.81887	-1.62
668.83087	5.88
668.84287	-12.22
668.85486	8.98
668.86685	-18.57
668.87884	-16.12
668.89083	5.88
668.90282	13.68
668.9148	1.78
668.92678	-6.97
668.93876	-2.17
668.95073	0.43
668.9627	-3.67
668.97468	1.08
668.98664	11.48
668.99861	11.18
669.01057	11.38
669.02253	4.33
669.03449	13.83
669.04645	-2.37
669.0584	1.23
669.07035	-1.37
669.0823	-5.02
669.09424	-16.92
669.10619	-15.62
669.11813	1.93
669.13007	11.18
669.142	10.93
669.15393	17.83
669.16587	2.88
669.17779	-6.17
669.18972	-12.72
669.20164	-15.62
669.21356	-1.37
669.22548	2.58
669.2374	3.23
669.24931	-5.22
669.26123	-13.67
669.27313	4.53
669.28504	10.98
669.29694	-3.67
669.30885	1.18
669.32074	6.33
669.33264	14.73
669.34454	-7.47
669.35643	-14.97
669.36832	-14.47
669.3802	-2.32
669.39209	-15.57
669.40397	-8.12
669.41585	-11.02
669.42773	-12.92
669.4396	-20.57
669.45147	-23.42
669.46334	-11.82
669.47521	-1.02
669.48707	-12.87
669.49894	-9.62
669.5108	3.43
669.52265	-1.02
669.53451	1.98
669.54636	-8.62
669.55821	1.98
669.57006	-1.62
669.5819	-16.27
669.59375	-11.57
669.60559	-0.27
669.61742	-3.07
669.62926	-9.82
669.64109	-5.52
669.65292	5.23
669.66475	3.48
669.67658	-2.07
669.6884	-5.87
669.70022	-4.27
669.71204	18.23
669.72385	0.98
669.73567	-3.07
669.74748	-0.42
669.75928	-1.92
669.77109	-0.47
669.78289	-2.47
669.79469	-1.32
669.80649	-3.92
669.81829	-12.77
669.83008	8.43
669.84187	-1.02
669.85366	-9.47
669.86545	-7.77
669.87723	5.43
669.88901	12.88
669.90079	13.23
669.91257	4.98
669.92434	18.33
669.93611	30.13
669.94788	23.03
669.95965	12.18
669.97141	-9.22
669.98317	-6.57
669.99493	6.43
670.00669	1.78
670.01844	5.33
670.0302	11.18
670.04194	-4.77
670.05369	8.88
670.06544	-12.27
670.07718	-6.32
670.08892	1.88
670.10065	-2.12
670.11239	-0.62
670.12412	6.43
670.13585	2.38
670.14758	-12.62
670.1593	-13.82
670.17103	5.18
670.18275	26.68
670.19446	-0.97
670.20618	6.28
670.21789	5.98
670.2296	8.28
670.24131	-5.02
670.25301	14.38
670.26472	26.08
670.27642	16.18
670.28811	2.98
670.29981	-2.07
670.3115	-4.72
670.32319	-8.57
670.33488	-13.12
670.34656	-8.32
670.35825	15.18
670.36993	13.53
670.38161	-1.22
670.39328	-9.82
670.40496	-4.77
670.41663	-8.47
670.42829	5.13
670.43996	7.03
670.45162	4.88
670.46328	-10.82
670.47494	-15.32
670.4866	-4.67
670.49825	8.83
670.5099	0.33
670.52155	-2.57
670.5332	8.08
670.54484	-5.02
670.55648	-13.42
670.56812	12.08
670.57976	-4.07
670.59139	-12.07
670.60302	-8.52
670.61465	-1.22
670.62628	-4.42
670.6379	-10.17
670.64952	-0.67
670.66114	-8.42
670.67276	-19.57
670.68438	-5.32
670.69599	9.03
670.7076	-0.77
670.7192	8.73
670.73081	24.88
670.74241	22.68
670.75401	2.08
670.76561	9.33
670.7772	8.63
670.78879	-2.72
670.80038	-10.12
670.81197	-12.42
670.82355	-2.47
670.83514	4.18
670.84672	-12.72
670.85829	-13.87
670.86987	-14.42
670.88144	-5.82
670.89301	-19.62
670.90458	-20.62
670.91614	-13.77
670.92771	-1.62
670.93927	2.88
670.95083	4.68
670.96238	-2.72
670.97393	-11.37
670.98548	-7.27
670.99703	-12.17
671.00858	-11.22
671.02012	-5.67
671.03166	-16.52
671.0432	-13.02
671.05473	4.53
671.06627	5.13
671.0778	-6.12
671.08933	-4.97
671.10085	2.83
671.11238	9.73
671.1239	3.98
671.13542	10.78
671.14693	4.28
671.15845	-1.12
671.16996	25.28
671.18147	51.33
671.19297	124.13
671.20448	338.78
671.21598	675.18
671.22748	1068.83
671.23897	1271.63
671.25047	1085.08
671.26196	730.78
671.27345	501.38
671.28493	346.63
671.29642	243.38
671.3079	178.33
671.31938	125.23
671.33085	83.58
671.34233	75.38
671.3538	60.18
671.36527	33.68
671.37674	2.38
671.3882	-6.02
671.39966	-8.42
671.41112	-0.87
671.42258	-9.12
671.43404	8.43
671.44549	14.68
671.45694	-1.37
671.46838	9.53
671.47983	10.78
671.49127	-1.77
671.50271	14.23
671.51415	4.78
671.52558	3.98
671.53702	6.98
671.54845	12.63
671.55987	3.33
671.5713	0.48
671.58272	-2.22
671.59414	8.43
671.60556	36.53
671.61698	23.63
671.62839	-0.92
671.6398	0.58
671.65121	-6.87
671.66261	-10.37
671.67402	-19.72
671.68542	-8.77
671.69681	-18.97
671.70821	-17.37
671.7196	-2.97
671.73099	-11.72
671.74238	-2.47
671.75377	-2.27
671.76515	-7.52
671.77653	-10.87
671.78791	-1.87
671.79929	16.43
671.81066	5.68
671.82203	11.48
671.8334	-9.97
671.84477	-3.07
671.85613	2.88
671.86749	6.93
671.87885	21.43
671.89021	38.63
671.90156	-1.12
671.91291	-17.67
671.92426	-19.27
671.93561	-5.92
671.94695	-8.32
671.9583	-6.72
671.96963	11.43
671.98097	4.88
671.99231	-1.87
672.00364	-26.22
672.01497	-4.22
672.02629	-2.72
672.03762	-12.07
672.04894	-7.12
672.06026	-15.02
672.07158	-19.47
672.08289	-15.62
672.0942	-8.12
672.10551	18.88
672.11682	40.53
672.12813	8.33
672.13943	-4.17
672.15073	-10.57
672.16203	-6.77
672.17332	-6.22
672.18461	-8.12
672.1959	8.13
672.20719	11.53
672.21848	15.03
672.22976	15.18
672.24104	9.83
672.25232	-2.77
672.26359	-3.62
672.27487	-6.72
672.28614	7.03
672.29741	6.63
672.30867	-4.87
672.31993	-3.77
672.33119	-0.87
672.34245	-8.12
672.35371	-21.97
672.36496	-10.27
672.37621	-6.92
672.38746	-15.77
672.39871	-12.17
672.40995	-9.17
672.42119	8.83
672.43243	22.28
672.44367	11.48
672.4549	-7.17
672.46613	10.93
672.47736	4.58
672.48859	6.48
672.49981	0.53
672.51103	-6.87
672.52225	-0.17
672.53347	-5.77
672.54468	-5.47
672.55589	7.58
672.5671	-4.57
672.57831	-7.57
672.58951	8.13
672.60072	3.28
672.61191	-8.27
672.62311	-5.07
672.63431	-3.67
672.6455	2.38
672.65669	-5.32
672.66787	-15.82
672.67906	-15.87
672.69024	-11.77
672.70142	-8.52
672.7126	-7.42
672.72377	-19.72
672.73494	-15.17
672.74611	1.53
672.75728	-8.87
672.76845	-0.47
672.77961	-1.52
672.79077	-9.87
672.80193	-17.27
672.81308	-0.12
672.82423	6.33
672.83539	7.53
672.84653	-3.42
672.85768	-7.32
672.86882	-5.17
672.87996	2.58
672.8911	-8.67
672.90223	-0.32
672.91337	-8.72
672.9245	-10.22
672.93563	-7.32
672.94675	7.13
672.95788	14.63
672.969	-7.92
672.98011	-3.97
672.99123	6.13
673.00234	-3.87
673.01345	-7.72
673.02456	-16.12
673.03567	-8.57
673.04677	2.13
673.05787	-11.27
673.06897	-4.87
673.08007	-6.82
673.09116	-5.92
673.10225	-21.92
673.11334	-8.52
673.12443	9.03
673.13551	13.18
673.14659	4.43
673.15767	-4.12
673.16875	-3.17
673.17982	-10.27
673.1909	-14.32
673.20196	-8.52
673.21303	-15.62
673.2241	-2.22
673.23516	5.93
673.24622	-2.32
673.25727	0.03
673.26833	0.73
673.27938	9.48
673.29043	0.88
673.30148	17.23
673.31252	3.58
673.32356	-2.87
673.3346	-7.87
673.34564	-2.32
673.35668	-7.37
673.36771	-16.92
673.37874	-2.47
673.38977	2.88
673.40079	11.58
673.41181	-3.77
673.42283	0.83
673.43385	-11.22
673.44487	3.38
673.45588	-9.57
673.46689	-17.57
673.4779	4.13
673.4889	10.48
673.4999	0.48
673.51091	-2.57
673.5219	5.23
673.5329	24.63
673.54389	11.08
673.55488	-9.22
673.56587	7.33
673.57686	6.68
673.58784	-5.27
673.59882	6.58
673.6098	-4.47
673.62077	14.83
673.63175	45.83
673.64272	12.18
673.65369	-11.17
673.66465	1.18
673.67562	-8.22
673.68658	1.33
673.69754	-7.52
673.70849	5.18
673.71945	4.48
673.7304	13.93
673.74135	31.83
673.75229	27.33
673.76324	32.63
673.77418	-6.27
673.78512	-0.62
673.79605	-0.12
673.80699	6.03
673.81792	-1.22
673.82885	8.63
673.83978	15.43
673.8507	11.13
673.86162	-3.07
673.87254	-9.77
673.88346	7.43
673.89437	3.43
673.90529	7.48
673.9162	11.53
673.9271	6.78
673.93801	9.53
673.94891	-7.92
673.95981	-6.57
673.97071	-3.57
673.9816	-2.57
673.99249	-2.42
674.00338	2.63
674.01427	-7.77
674.02516	-5.07
674.03604	-18.82
674.04692	-9.82
674.0578	-1.12
674.06867	3.38
674.07954	4.98
674.09042	22.93
674.10128	-10.97
674.11215	-24.47
674.12301	-5.17
674.13387	-0.37
674.14473	-11.32
674.15559	-7.92
674.16644	-6.47
674.17729	-13.97
674.18814	-9.07
674.19898	-4.17
674.20983	-15.77
674.22067	-11.02
674.23151	-10.02
674.24234	-15.02
674.25318	-2.97
674.26401	19.98
674.27483	9.48
674.28566	-14.57
674.29648	-14.37
674.30731	-16.37
674.31812	-9.42
674.32894	-4.47
674.33975	8.03
674.35057	0.03
674.36137	-1.72
674.37218	5.73
674.38299	-20.57
674.39379	-21.82
674.40459	10.78
674.41538	6.73
674.42618	-4.22
674.43697	-11.17
674.44776	-11.42
674.45854	-2.92
674.46933	3.63
674.48011	4.88
674.49089	-7.52
674.50167	-11.67
674.51244	-14.07
674.52321	-22.92
674.53398	-30.87
674.54475	-21.72
674.55552	-4.67
674.56628	-7.87
674.57704	-9.42
674.5878	-2.07
674.59855	-6.67
674.6093	3.73
674.62005	6.93
674.6308	3.73
674.64155	-8.52
674.65229	-7.92
674.66303	-4.17
674.67377	12.98
674.6845	11.48
674.69523	23.43
674.70596	6.83
674.71669	-5.47
674.72742	-15.47
674.73814	-16.32
674.74886	-7.97
674.75958	-7.52
674.77029	-1.22
674.78101	-13.67
674.79172	3.63
674.80243	2.88
674.81313	-1.17
674.82384	14.18
674.83454	1.03
674.84524	-14.82
674.85593	-11.72
674.86663	-3.52
674.87732	-12.12
674.888	-7.42
674.89869	-4.87
674.90937	-2.07
674.92006	7.93
674.93073	8.38
674.94141	-6.07
674.95208	-3.12
674.96276	18.23
674.97343	13.88
674.98409	10.38
674.99476	8.13
675.00542	-8.27
675.01608	-7.07
675.02673	-10.97
675.03739	-7.67
675.04804	-2.17
675.05869	9.93
675.06934	11.48
675.07998	11.58
675.09062	-20.27
675.10126	-19.27
675.1119	-10.27
675.12253	12.88
675.13317	13.03
675.1438	2.88
675.15442	-6.82
675.16505	-12.47
675.17567	4.03
675.18629	17.13
675.19691	8.73
675.20752	5.08
675.21813	1.08
675.22874	-3.17
675.23935	5.58
675.24996	2.93
675.26056	11.68
675.27116	5.53
675.28176	-0.47
675.29235	-2.42
675.30295	-2.22
675.31354	-0.42
675.32412	-5.42
675.33471	-23.02
675.34529	-13.87
675.35587	-11.72
675.36645	-27.32
675.37703	-23.67
675.3876	-7.07
675.39817	-1.17
675.40874	-1.52
675.41931	-2.07
675.42987	11.08
675.44043	6.28
675.45099	-2.92
675.46154	6.38
675.4721	5.98
675.48265	8.18
675.4932	13.53
675.50374	5.98
675.51429	-7.27
675.52483	-6.82
675.53537	-14.97
675.5459	-6.27
675.55644	6.88
675.56697	-0.72
675.5775	-5.22
675.58803	-11.97
675.59855	0.78
675.60907	-6.22
675.61959	-13.17
675.63011	-6.72
675.64062	-14.17
675.65113	-10.97
675.66164	8.63
675.67215	-9.87
675.68265	0.68
675.69316	-0.77
675.70366	-5.72
675.71415	15.98
675.72465	25.98
675.73514	11.98
675.74563	13.83
675.75612	-6.67
675.7666	-8.37
675.77708	-2.87
675.78756	-0.57
675.79804	-6.82
675.80852	12.63
675.81899	28.23
675.82946	3.58
675.83993	2.93
675.85039	9.63
675.86085	7.88
675.87131	15.03
675.88177	10.18
675.89223	10.83
675.90268	15.23
675.91313	5.43
675.92358	0.33
675.93402	-8.07
675.94447	0.93
675.95491	10.63
675.96535	-9.37
675.97578	6.33
675.98622	20.78
675.99665	-12.87
676.00707	1.28
676.0175	8.58
676.02792	1.73
676.03835	-8.82
676.04876	-1.77
676.05918	-3.12
676.06959	-0.82
676.08	17.58
676.09041	11.68
676.10082	-7.87
676.11122	-2.92
676.12162	72.43
676.13202	150.33
676.14242	24.58
676.15281	-2.97
676.16321	-16.22
676.17359	-12.52
676.18398	-20.97
676.19437	0.68
676.20475	-8.27
676.21513	-15.77
676.2255	-0.67
676.23588	18.58
676.24625	11.33
676.25662	-7.27
676.26699	-16.32
676.27735	-4.27
676.28771	18.83
676.29807	2.38
676.30843	4.53
676.31878	-5.87
676.32914	1.78
676.33949	11.38
676.34983	16.78
676.36018	1.23
676.37052	-11.27
676.38086	-16.07
676.3912	-12.07
676.40153	-0.57
676.41187	11.93
676.4222	-0.52
676.43252	6.28
676.44285	25.48
676.45317	2.93
676.46349	-12.17
676.47381	1.13
676.48413	11.38
676.49444	2.38
676.50475	11.48
676.51506	9.03
676.52536	21.38
676.53567	4.88
676.54597	6.68
676.55626	11.28
676.56656	-1.37
676.57685	-3.22
676.58714	6.53
676.59743	7.93
676.60772	-0.07
676.618	-10.72
676.62828	-6.82
676.63856	-19.17
676.64884	-13.47
676.65911	-10.57
676.66938	-16.87
676.67965	-4.77
676.68992	18.98
676.70018	13.43
676.71044	1.08
676.7207	34.73
676.73096	23.48
676.74121	8.58
676.75146	13.73
676.76171	20.83
676.77196	-1.72
676.7822	-15.02
676.79245	-6.37
676.80269	7.98
676.81292	-17.32
676.82316	-14.92
676.83339	6.18
676.84362	27.43
676.85385	-7.02
676.86407	0.98
676.87429	-0.62
676.88451	8.73
676.89473	7.63
676.90494	-26.92
676.91516	-20.32
676.92537	-9.77
676.93557	4.43
676.94578	-3.02
676.95598	-15.07
676.96618	-16.42
676.97638	-13.47
676.98657	-7.92
676.99677	-9.82
677.00696	3.38
677.01714	19.13
677.02733	10.23
677.03751	5.28
677.04769	-1.97
677.05787	-4.12
677.06805	-4.77
677.07822	-7.82
677.08839	2.48
677.09856	-8.87
677.10872	-8.82
677.11889	-1.07
677.12905	10.43
677.13921	6.73
677.14936	-9.17
677.15951	-11.12
677.16967	-1.67
677.17981	6.53
677.18996	7.78
677.2001	-15.02
677.21025	-18.12
677.22038	-4.77
677.23052	-9.62
677.24065	-13.72
677.25078	-1.67
677.26091	9.08
677.27104	2.73
677.28116	-10.02
677.29129	-0.62
677.3014	-5.57
677.31152	23.98
677.32164	85.98
677.33175	-0.72
677.34186	-2.62
677.35196	2.08
677.36207	7.53
677.37217	16.23
677.38227	15.08
677.39236	3.53
677.40246	-3.72
677.41255	-13.02
677.42264	-5.12
677.43273	-4.57
677.44281	-1.52
677.45289	12.08
677.46297	-9.97
677.47305	-15.82
677.48313	-9.62
677.4932	1.68
677.50327	-2.37
677.51334	-4.62
677.5234	2.18
677.53346	15.43
677.54352	3.18
677.55358	-4.07
677.56364	7.18
677.57369	26.38
677.58374	9.73
677.59379	-18.12
677.60383	-14.12
677.61388	0.73
677.62392	-0.27
677.63395	-4.17
677.64399	8.78
677.65402	18.58
677.66405	5.58
677.67408	-11.07
677.68411	-5.82
677.69413	2.48
677.70415	1.08
677.71417	0.58
677.72419	-10.42
677.7342	0.48
677.74421	-11.77
677.75422	-14.47
677.76422	-6.62
677.77423	5.98
677.78423	17.08
677.79423	-2.57
677.80422	6.88
677.81422	3.43
677.82421	-13.52
677.8342	-6.72
677.84418	-8.92
677.85417	2.63
677.86415	15.93
677.87413	-4.17
677.88411	-10.17
677.89408	8.78
677.90405	4.18
677.91402	2.38
677.92399	7.53
677.93395	29.28
677.94391	16.28
677.95387	-11.22
677.96383	-6.97
677.97378	4.98
677.98374	-2.82
677.99369	-4.22
678.00363	7.98
678.01358	-6.52
678.02352	-3.92
678.03346	3.93
678.0434	-4.32
678.05333	-7.37
678.06326	0.28
678.07319	-1.37
678.08312	-3.37
678.09305	15.23
678.10297	1.68
678.11289	-11.92
678.12281	1.43
678.13272	0.98
678.14264	-7.32
678.15255	-1.42
678.16245	-3.42
678.17236	-8.47
678.18226	-2.47
678.19216	-6.67
678.20206	-18.02
678.21196	-11.17
678.22185	9.98
678.23174	8.98
678.24163	7.03
678.25151	3.18
678.2614	22.53
678.27128	18.53
678.28116	2.73
678.29103	13.33
678.30091	2.53
678.31078	-13.77
678.32065	-11.77
678.33051	3.03
678.34037	-0.82
678.35024	-18.52
678.36009	-9.97
678.36995	-3.22
678.37981	2.33
678.38966	-15.42
678.39951	-6.67
678.40935	-3.02
678.4192	-5.22
678.42904	-15.77
678.43888	-0.37
678.44871	-3.32
678.45855	6.93
678.46838	7.88
678.47821	-7.27
678.48804	-4.57
678.49786	20.98
678.50768	19.58
678.5175	4.18
678.52732	13.08
678.53713	9.13
678.54694	-3.87
678.55675	-17.92
678.56656	-13.42
678.57637	-15.22
678.58617	-12.62
678.59597	9.98
678.60577	2.83
678.61556	-18.12
678.62535	-3.52
678.63514	19.63
678.64493	16.43
678.65472	-2.62
678.6645	8.98
678.67428	4.53
678.68406	4.78
678.69383	-5.47
678.7036	-8.62
678.71337	0.63
678.72314	5.53
678.73291	4.78
678.74267	-10.27
678.75243	-11.07
678.76219	-5.07
678.77195	2.58
678.7817	-9.87
678.79145	-5.32
678.8012	4.38
678.81094	-10.87
678.82069	-11.52
678.83043	52.43
678.84017	123.78
678.8499	-0.42
678.85964	-4.82
678.86937	3.03
678.87909	13.38
678.88882	5.43
678.89854	-3.47
678.90827	-1.27
678.91798	-4.77
678.9277	-4.32
678.93742	-15.17
678.94713	-3.87
678.95684	-0.12
678.96654	4.68
678.97625	0.43
678.98595	6.38
678.99565	-6.47
679.00534	-14.17
679.01504	-13.57
679.02473	-15.67
679.03442	-8.12
679.04411	9.98
679.05379	-1.22
679.06347	-14.72
679.07315	-9.32
679.08283	-1.47
679.0925	-6.17
679.10218	6.23
679.11185	-4.57
679.12151	-7.62
679.13118	-1.17
679.14084	-8.87
679.1505	-5.92
679.16016	-7.47
679.16981	-18.67
679.17946	5.13
679.18911	7.53
679.19876	-15.02
679.20841	0.03
679.21805	7.78
679.22769	7.13
679.23733	7.83
679.24696	11.13
679.2566	1.23
679.26623	1.08
679.27585	5.93
679.28548	-14.87
679.2951	-2.22
679.30472	-8.07
679.31434	-13.42
679.32396	-10.72
679.33357	-14.12
679.34318	18.18
679.35279	34.73
679.3624	-5.27
679.372	1.98
679.3816	12.03
679.3912	-8.07
679.40079	23.53
679.41039	8.53
679.41998	1.28
679.42957	-2.47
679.43915	-12.57
679.44874	-2.37
679.45832	19.58
679.4679	-1.52
679.47747	-16.82
679.48705	-11.57
679.49662	7.58
679.50619	4.18
679.51575	-7.72
679.52532	-3.77
679.53488	10.33
679.54444	0.03
679.554	-5.72
679.56355	-1.82
679.5731	6.83
679.58265	-2.77
679.5922	-8.92
679.60174	7.43
679.61129	14.73
679.62083	-4.22
679.63036	-19.47
679.6399	-7.32
679.64943	14.58
679.65896	5.73
679.66849	-8.02
679.67801	-1.12
679.68753	8.73
679.69705	23.08
679.70657	27.28
679.71609	15.13
679.7256	19.48
679.73511	9.23
679.74462	-13.07
679.75412	-7.77
679.76362	14.73
679.77312	12.53
679.78262	-3.62
679.79212	-1.52
679.80161	5.23
679.8111	-7.57
679.82059	-12.07
679.83007	8.28
679.83956	11.03
679.84904	0.13
679.85852	2.78
679.86799	-9.87
679.87747	-1.32
679.88694	-7.77
679.8964	-14.07
679.90587	-10.72
679.91533	7.48
679.92479	4.18
679.93425	-6.67
679.94371	9.48
679.95316	13.03
679.96261	8.08
679.97206	-3.17
679.98151	-6.72
679.99095	-8.12
680.00039	-10.52
680.00983	-9.27
680.01927	2.53
680.0287	-3.27
680.03814	18.88
680.04756	-9.67
680.05699	-10.02
680.06641	-1.32
680.07584	-6.37
680.08526	-14.47
680.09467	-2.57
680.10409	-10.67
680.1135	-16.77
680.12291	-8.62
680.13232	2.78
680.14172	18.78
680.15112	4.18
680.16052	-10.02
680.16992	1.13
680.17931	11.28
680.18871	7.48
680.1981	-13.47
680.20748	-9.72
680.21687	-4.67
