Data from HR4C25001_14-53-53-184.txt Node
Date: Tue Jun 16 14:53:53 CDT 2026
User: jam28248
Spectrometer: HR4C2500
Trigger mode: 4
Integration Time (sec): 1.000000E-1
Scans to average: 10
Electric dark correction enabled: true
Nonlinearity correction enabled: false
Boxcar width: 0
XAxis mode: Wavelengths
Number of Pixels in Spectrum: 3648
>>>>>Begin Spectral Data<<<<<
629.66646	-65.95
629.6848	-65.95
629.70313	-65.95
629.72147	-87.35
629.7398	-59.45
629.75812	-2.05
629.77645	3.85
629.79477	12.35
629.81309	-7.15
629.83141	-16.85
629.84972	1.45
629.86803	-2.25
629.88634	13.35
629.90465	-20.75
629.92295	-16.45
629.94126	-12.55
629.95956	0.55
629.97785	46.45
629.99615	133.85
630.01444	130.75
630.03273	63.45
630.05102	37.55
630.0693	23.55
630.08759	22.35
630.10587	6.15
630.12415	1.95
630.14242	10.85
630.16069	-15.05
630.17896	-8.65
630.19723	7.65
630.2155	28.15
630.23376	101.65
630.25202	36.95
630.27028	23.35
630.28854	11.55
630.30679	2.45
630.32504	2.25
630.34329	6.65
630.36153	11.95
630.37978	30.15
630.39802	10.35
630.41626	-1.65
630.43449	-12.95
630.45273	0.35
630.47096	13.75
630.48919	9.95
630.50741	13.95
630.52564	2.35
630.54386	8.05
630.56208	25.75
630.58029	11.85
630.59851	5.65
630.61672	7.25
630.63493	14.25
630.65313	7.75
630.67134	10.35
630.68954	6.15
630.70774	18.75
630.72594	25.25
630.74413	3.65
630.76232	-11.85
630.78051	-7.25
630.7987	2.65
630.81688	14.35
630.83507	23.15
630.85325	15.35
630.87142	4.95
630.8896	10.65
630.90777	-2.85
630.92594	-18.05
630.94411	13.75
630.96227	32.95
630.98043	55.05
630.99859	12.85
631.01675	3.25
631.03491	-1.95
631.05306	-9.45
631.07121	12.35
631.08936	11.75
631.1075	-6.25
631.12564	6.15
631.14379	13.35
631.16192	20.35
631.18006	9.25
631.19819	11.05
631.21632	7.75
631.23445	-13.75
631.25258	-2.95
631.2707	4.95
631.28882	7.35
631.30694	10.15
631.32505	3.95
631.34317	16.25
631.36128	4.95
631.37939	18.75
631.39749	3.45
631.4156	1.35
631.4337	-4.55
631.4518	6.05
631.46989	-13.05
631.48799	-9.65
631.50608	-8.85
631.52417	-15.75
631.54225	-2.05
631.56034	4.15
631.57842	5.95
631.5965	-2.05
631.61457	-24.35
631.63265	-13.05
631.65072	-1.65
631.66879	-8.95
631.68685	14.85
631.70492	31.75
631.72298	22.15
631.74104	-4.25
631.7591	-0.55
631.77715	-0.55
631.7952	14.95
631.81325	18.25
631.8313	-1.65
631.84934	17.75
631.86739	17.95
631.88543	4.45
631.90346	10.45
631.9215	-6.25
631.93953	1.15
631.95756	-1.85
631.97559	9.95
631.99361	-8.55
632.01163	-12.35
632.02965	9.65
632.04767	20.85
632.06569	17.75
632.0837	5.15
632.10171	-8.45
632.11972	-15.55
632.13772	1.85
632.15573	18.85
632.17373	1.85
632.19172	-10.65
632.20972	-6.05
632.22771	-14.25
632.2457	-2.25
632.26369	6.65
632.28168	21.35
632.29966	3.05
632.31764	12.45
632.33562	6.75
632.35359	10.65
632.37157	9.45
632.38954	5.55
632.40751	0.85
632.42547	-11.55
632.44344	15.75
632.4614	9.15
632.47936	-4.15
632.49731	-4.15
632.51527	2.65
632.53322	11.85
632.55117	7.35
632.56911	4.25
632.58706	-4.65
632.605	0.15
632.62294	4.35
632.64087	10.65
632.65881	-9.65
632.67674	4.05
632.69467	2.85
632.7126	8.25
632.73052	21.25
632.74844	20.45
632.76636	31.35
632.78428	41.75
632.80219	57.45
632.8201	71.35
632.83801	59.45
632.85592	79.95
632.87383	142.55
632.89173	257.65
632.90963	714.85
632.92753	1853.95
632.94542	2847.05
632.96331	2259.25
632.9812	908.35
632.99909	290.55
633.01697	109.75
633.03486	69.05
633.05274	39.25
633.07061	25.05
633.08849	16.25
633.10636	25.15
633.12423	32.05
633.1421	15.75
633.15997	32.05
633.17783	11.15
633.19569	18.35
633.21355	23.65
633.2314	24.35
633.24926	-7.25
633.26711	0.75
633.28495	5.15
633.3028	-2.35
633.32064	0.45
633.33848	16.95
633.35632	33.15
633.37416	21.95
633.39199	5.45
633.40982	-5.75
633.42765	4.15
633.44548	1.05
633.4633	-13.25
633.48112	-10.95
633.49894	-11.55
633.51676	1.75
633.53457	-0.55
633.55238	8.85
633.57019	1.05
633.588	-11.05
633.6058	-12.25
633.6236	1.95
633.6414	6.95
633.6592	-6.25
633.67699	-11.65
633.69478	-1.35
633.71257	17.85
633.73036	16.35
633.74815	-4.75
633.76593	-1.35
633.78371	3.85
633.80148	-2.35
633.81926	-3.95
633.83703	-6.25
633.8548	-29.55
633.87257	-27.65
633.89033	-8.55
633.90809	4.55
633.92585	-3.25
633.94361	-9.55
633.96137	-2.35
633.97912	8.65
633.99687	-25.55
634.01462	-2.05
634.03236	12.85
634.0501	11.35
634.06784	-14.65
634.08558	8.35
634.10332	12.25
634.12105	1.05
634.13878	9.15
634.15651	14.45
634.17423	5.05
634.19196	-3.75
634.20968	-0.75
634.22739	11.55
634.24511	6.05
634.26282	12.95
634.28053	24.15
634.29824	7.45
634.31595	3.65
634.33365	-2.85
634.35135	-14.65
634.36905	-21.35
634.38675	1.65
634.40444	2.95
634.42213	-9.25
634.43982	-4.15
634.4575	-11.85
634.47519	13.65
634.49287	27.25
634.51055	-10.95
634.52822	-5.55
634.5459	-2.45
634.56357	-4.45
634.58124	-23.75
634.59891	-0.35
634.61657	0.55
634.63423	10.55
634.65189	18.35
634.66955	-9.65
634.6872	8.65
634.70485	-0.55
634.7225	-4.75
634.74015	7.55
634.75779	-1.45
634.77544	-3.95
634.79307	-6.85
634.81071	16.15
634.82835	8.85
634.84598	-0.95
634.86361	-8.95
634.88123	15.35
634.89886	-3.25
634.91648	-5.95
634.9341	-12.45
634.95172	5.05
634.96933	4.05
634.98695	11.55
635.00456	0.05
635.02216	8.55
635.03977	6.75
635.05737	-3.35
635.07497	-9.75
635.09257	1.15
635.11016	10.65
635.12776	7.35
635.14535	-5.65
635.16294	9.75
635.18052	-1.15
635.1981	7.15
635.21569	5.25
635.23326	-3.85
635.25084	5.05
635.26841	-3.15
635.28598	0.85
635.30355	-9.45
635.32112	-14.45
635.33868	-23.95
635.35624	-22.15
635.3738	-0.65
635.39136	-10.25
635.40891	-10.25
635.42646	3.15
635.44401	3.75
635.46155	-6.65
635.4791	-3.25
635.49664	3.95
635.51418	11.15
635.53171	-4.35
635.54925	-2.85
635.56678	-6.55
635.58431	2.05
635.60184	22.05
635.61936	24.55
635.63688	-4.15
635.6544	4.85
635.67192	-7.85
635.68943	6.95
635.70694	0.15
635.72445	-2.85
635.74196	-13.25
635.75946	-22.35
635.77697	-11.55
635.79447	-5.85
635.81196	13.15
635.82946	-4.35
635.84695	-19.15
635.86444	2.35
635.88193	4.65
635.89941	10.75
635.91689	-7.95
635.93437	-7.75
635.95185	-3.45
635.96933	-2.95
635.9868	9.45
636.00427	45.15
636.02174	11.95
636.0392	-6.85
636.05666	13.85
636.07412	2.95
636.09158	1.65
636.10904	-7.05
636.12649	4.75
636.14394	-1.85
636.16139	16.65
636.17883	-4.65
636.19628	-8.85
636.21372	-12.15
636.23116	-3.75
636.24859	-9.25
636.26602	-6.15
636.28345	1.85
636.30088	2.35
636.31831	0.45
636.33573	-4.15
636.35315	1.35
636.37057	5.65
636.38799	-1.65
636.4054	9.55
636.42281	10.55
636.44022	7.95
636.45763	-8.15
636.47503	-13.15
636.49243	-18.45
636.50983	-12.95
636.52723	-3.55
636.54462	-7.25
636.56201	-7.45
636.5794	-14.45
636.59679	-13.55
636.61417	-4.95
636.63155	-11.35
636.64893	20.75
636.66631	14.45
636.68368	-6.85
636.70106	-12.25
636.71843	-18.55
636.73579	-16.75
636.75316	-0.15
636.77052	1.95
636.78788	6.45
636.80524	-5.05
636.82259	-16.35
636.83994	-13.25
636.85729	-12.65
636.87464	-17.95
636.89198	-10.15
636.90933	17.65
636.92667	15.25
636.944	-6.15
636.96134	-12.35
636.97867	-13.15
636.996	-5.55
637.01333	-6.55
637.03066	-8.15
637.04798	-19.85
637.0653	-1.95
637.08262	1.95
637.09993	-10.15
637.11724	-14.55
637.13455	5.35
637.15186	20.55
637.16917	11.15
637.18647	-2.45
637.20377	9.05
637.22107	3.25
637.23837	2.15
637.25566	32.25
637.27295	4.15
637.29024	10.95
637.30752	-10.95
637.32481	-6.75
637.34209	9.05
637.35937	23.95
637.37664	16.85
637.39392	10.95
637.41119	-1.05
637.42846	4.95
637.44572	-10.45
637.46299	1.85
637.48025	32.05
637.49751	7.55
637.51476	-8.15
637.53202	11.65
637.54927	-0.15
637.56652	1.65
637.58376	10.25
637.60101	7.25
637.61825	19.65
637.63549	20.15
637.65273	20.75
637.66996	19.95
637.68719	26.45
637.70442	41.15
637.72165	51.15
637.73887	85.05
637.7561	158.65
637.77332	437.75
637.79053	1565.45
637.80775	3445.35
637.82496	3657.55
637.84217	1800.85
637.85938	463.25
637.87658	150.85
637.89378	64.95
637.91098	32.75
637.92818	18.35
637.94538	31.15
637.96257	29.85
637.97976	21.15
637.99695	12.15
638.01413	-9.45
638.03132	-1.95
638.0485	4.75
638.06567	-12.95
638.08285	5.55
638.10002	9.15
638.11719	-1.05
638.13436	-3.85
638.15153	1.15
638.16869	-11.15
638.18585	-4.65
638.20301	-10.55
638.22016	-18.25
638.23732	-17.15
638.25447	-9.45
638.27162	-8.45
638.28876	-7.45
638.30591	-8.75
638.32305	3.35
638.34019	14.05
638.35732	14.95
638.37446	19.15
638.39159	-6.45
638.40872	-15.35
638.42584	1.45
638.44297	3.45
638.46009	-5.55
638.47721	0.25
638.49432	12.55
638.51144	5.75
638.52855	7.35
638.54566	-7.75
638.56276	-3.05
638.57987	2.25
638.59697	6.75
638.61407	-3.65
638.63117	-8.95
638.64826	-2.35
638.66535	1.25
638.68244	1.45
638.69953	3.05
638.71661	7.95
638.7337	-1.85
638.75078	1.45
638.76785	4.05
638.78493	-6.85
638.802	-10.55
638.81907	-6.25
638.83614	3.85
638.8532	17.55
638.87026	-2.55
638.88732	-18.45
638.90438	-3.85
638.92144	11.15
638.93849	11.35
638.95554	12.65
638.97259	1.95
638.98963	7.55
639.00668	16.65
639.02372	9.35
639.04075	14.45
639.05779	17.25
639.07482	11.75
639.09185	16.65
639.10888	-15.75
639.12591	-14.65
639.14293	-3.05
639.15995	-4.85
639.17697	23.85
639.19398	35.95
639.211	44.05
639.22801	26.35
639.24502	5.85
639.26202	7.65
639.27903	6.55
639.29603	15.35
639.31303	28.75
639.33002	6.75
639.34702	11.55
639.36401	8.85
639.381	3.35
639.39798	13.25
639.41497	20.35
639.43195	26.35
639.44893	8.05
639.4659	20.75
639.48288	27.65
639.49985	36.55
639.51682	28.55
639.53379	14.85
639.55075	9.25
639.56771	5.15
639.58467	31.05
639.60163	59.05
639.61858	75.55
639.63553	103.55
639.65248	129.65
639.66943	170.05
639.68638	342.15
639.70332	1274.75
639.72026	4714.75
639.73719	9624.05
639.75413	9573.15
639.77106	4663.15
639.78799	1508.05
639.80492	588.35
639.82184	267.85
639.83877	142.25
639.85569	104.95
639.8726	67.35
639.88952	58.85
639.90643	26.45
639.92334	28.95
639.94025	25.85
639.95716	30.05
639.97406	23.65
639.99096	34.05
640.00786	25.55
640.02475	18.45
640.04165	3.05
640.05854	11.35
640.07542	13.95
640.09231	21.15
640.10919	19.65
640.12607	18.45
640.14295	-1.75
640.15983	1.95
640.1767	6.75
640.19357	-4.15
640.21044	-5.55
640.22731	13.35
640.24417	16.05
640.26103	18.55
640.27789	23.25
640.29475	6.05
640.3116	-17.35
640.32845	-9.85
640.3453	6.45
640.36215	-1.75
640.37899	0.95
640.39583	26.25
640.41267	38.95
640.42951	2.35
640.44634	-16.05
640.46317	-0.55
640.48	-8.95
640.49683	-13.95
640.51365	-7.55
640.53048	-2.85
640.5473	2.25
640.56411	-1.45
640.58093	13.45
640.59774	15.35
640.61455	-1.75
640.63136	0.05
640.64816	-10.05
640.66496	-1.65
640.68176	11.45
640.69856	-15.45
640.71535	-10.45
640.73215	-8.15
640.74894	-11.05
640.76572	13.15
640.78251	16.35
640.79929	6.45
640.81607	4.35
640.83285	1.45
640.84963	10.75
640.8664	14.95
640.88317	30.75
640.89994	1.55
640.9167	-0.55
640.93346	-14.55
640.95022	-16.85
640.96698	-6.95
640.98374	-10.45
641.00049	-15.95
641.01724	-12.15
641.03399	-13.35
641.05074	-13.15
641.06748	-15.85
641.08422	7.55
641.10096	-0.45
641.11769	11.25
641.13443	0.95
641.15116	-2.45
641.16789	-7.85
641.18461	-15.05
641.20134	16.55
641.21806	14.35
641.23478	-3.85
641.25149	-2.25
641.26821	8.65
641.28492	0.15
641.30163	-1.05
641.31833	-13.05
641.33504	-8.95
641.35174	-8.25
641.36844	3.25
641.38514	3.05
641.40183	-2.35
641.41852	3.55
641.43521	6.85
641.4519	30.25
641.46858	10.75
641.48526	-6.15
641.50194	-2.05
641.51862	-10.55
641.53529	-4.55
641.55197	12.95
641.56864	20.95
641.5853	-3.05
641.60197	-1.95
641.61863	4.25
641.63529	-15.45
641.65195	-9.65
641.6686	4.55
641.68526	7.45
641.70191	11.95
641.71855	25.85
641.7352	19.45
641.75184	1.35
641.76848	-1.15
641.78512	-6.75
641.80175	-2.45
641.81839	16.35
641.83502	17.95
641.85164	9.85
641.86827	14.25
641.88489	5.35
641.90151	-9.65
641.91813	-3.45
641.93475	11.25
641.95136	-0.15
641.96797	-17.45
641.98458	-23.15
642.00119	-0.85
642.01779	-0.35
642.03439	2.55
642.05099	-6.55
642.06758	-20.25
642.08418	-2.65
642.10077	0.95
642.11736	4.95
642.13394	-4.65
642.15053	-1.35
642.16711	-8.75
642.18369	-10.15
642.20026	9.65
642.21684	22.95
642.23341	18.85
642.24998	8.75
642.26654	18.95
642.28311	12.75
642.29967	-2.85
642.31623	-17.05
642.33279	-6.15
642.34934	-9.75
642.36589	-20.35
642.38244	-27.65
642.39899	69.55
642.41553	196.65
642.43207	25.15
642.44861	-23.95
642.46515	-5.75
642.48169	2.05
642.49822	-5.45
642.51475	2.05
642.53127	-11.35
642.5478	-3.35
642.56432	8.05
642.58084	6.25
642.59736	-0.85
642.61387	7.05
642.63039	14.55
642.6469	10.95
642.6634	25.15
642.67991	-1.55
642.69641	3.35
642.71291	-6.35
642.72941	10.15
642.74591	18.05
642.7624	-0.75
642.77889	-1.15
642.79538	-13.95
642.81186	-19.35
642.82834	-25.95
642.84483	-16.65
642.8613	-8.15
642.87778	-16.85
642.89425	7.25
642.91072	45.95
642.92719	-5.95
642.94366	2.45
642.96012	18.05
642.97658	-0.85
642.99304	-1.75
643.0095	3.85
643.02595	-6.55
643.0424	-11.55
643.05885	4.45
643.0753	-13.85
643.09174	-20.25
643.10818	-18.55
643.12462	-13.55
643.14106	-6.55
643.15749	-7.65
643.17392	-0.15
643.19035	27.75
643.20678	21.35
643.2232	-2.35
643.23962	10.75
643.25604	1.55
643.27246	-11.75
643.28887	-8.25
643.30528	4.05
643.32169	13.55
643.3381	-3.65
643.35451	-0.65
643.37091	12.95
643.38731	3.35
643.4037	-7.75
643.4201	-4.05
643.43649	8.75
643.45288	23.05
643.46927	5.25
643.48565	-2.75
643.50204	9.05
643.51842	7.95
643.53479	-14.35
643.55117	2.95
643.56754	-0.05
643.58391	3.85
643.60028	-2.45
643.61664	1.25
643.63301	2.15
643.64937	4.45
643.66572	0.45
643.68208	-9.75
643.69843	-5.15
643.71478	-15.65
643.73113	-8.15
643.74748	-8.15
643.76382	-0.05
643.78016	-5.25
643.7965	5.05
643.81283	13.15
643.82917	16.65
643.8455	-5.35
643.86183	18.75
643.87815	18.85
643.89448	14.05
643.9108	11.35
643.92712	4.65
643.94343	7.35
643.95974	-19.45
643.97606	-22.55
643.99236	1.75
644.00867	17.45
644.02497	3.95
644.04128	-1.45
644.05758	4.85
644.07387	7.15
644.09017	1.65
644.10646	7.55
644.12275	4.85
644.13903	-0.25
644.15532	-5.35
644.1716	-3.95
644.18788	30.55
644.20415	6.05
644.22043	4.55
644.2367	8.65
644.25297	-1.65
644.26924	2.45
644.2855	2.75
644.30176	-3.85
644.31802	-3.65
644.33428	13.05
644.35054	21.15
644.36679	-1.45
644.38304	-0.05
644.39928	1.35
644.41553	11.95
644.43177	-5.25
644.44801	-13.15
644.46425	-12.65
644.48048	-0.25
644.49672	-0.75
644.51295	2.65
644.52917	-6.25
644.5454	5.85
644.56162	-1.85
644.57784	5.05
644.59406	-2.85
644.61028	3.05
644.62649	0.05
644.6427	6.75
644.65891	-3.15
644.67511	-19.65
644.69132	-5.15
644.70752	-0.05
644.72372	0.75
644.73991	-3.35
644.7561	3.95
644.7723	14.55
644.78848	24.05
644.80467	12.35
644.82085	-8.55
644.83703	4.45
644.85321	14.75
644.86939	6.85
644.88556	9.55
644.90173	16.65
644.9179	19.15
644.93407	8.95
644.95023	20.65
644.96639	1.55
644.98255	2.35
644.99871	-5.65
645.01486	-6.75
645.03102	11.45
645.04716	16.75
645.06331	13.75
645.07946	51.35
645.0956	110.15
645.11174	17.75
645.12787	24.65
645.14401	8.85
645.16014	12.05
645.17627	6.85
645.1924	5.45
645.20852	14.85
645.22464	2.45
645.24076	22.15
645.25688	37.35
645.27299	15.55
645.28911	11.75
645.30522	-2.75
645.32132	5.95
645.33743	11.85
645.35353	10.25
645.36963	-2.65
645.38573	2.75
645.40182	2.85
645.41792	1.45
645.43401	-4.05
645.45009	-0.35
645.46618	13.45
645.48226	-3.35
645.49834	1.25
645.51442	-9.45
645.5305	-2.45
645.54657	1.55
645.56264	5.05
645.57871	1.85
645.59477	9.75
645.61084	2.15
645.6269	8.75
645.64296	12.55
645.65901	14.75
645.67507	19.65
645.69112	8.65
645.70716	-4.65
645.72321	-8.65
645.73925	4.75
645.7553	4.25
645.77133	-8.05
645.78737	-2.45
645.8034	19.55
645.81944	27.55
645.83546	0.65
645.85149	30.25
645.86751	4.15
645.88354	-8.25
645.89955	-10.45
645.91557	-1.45
645.93159	-10.95
645.9476	0.95
645.96361	1.45
645.97961	7.55
645.99562	11.55
646.01162	15.15
646.02762	2.35
646.04361	-3.75
646.05961	-12.45
646.0756	-13.35
646.09159	5.85
646.10758	-9.15
646.12356	6.05
646.13954	14.95
646.15552	3.85
646.1715	18.55
646.18748	13.25
646.20345	4.45
646.21942	-6.65
646.23539	16.05
646.25135	26.75
646.26731	0.75
646.28327	11.45
646.29923	2.65
646.31519	24.15
646.33114	30.45
646.34709	17.05
646.36304	-2.15
646.37898	-10.35
646.39493	-19.25
646.41087	-7.85
646.4268	-7.85
646.44274	-9.25
646.45867	-11.25
646.4746	6.75
646.49053	3.95
646.50646	-4.55
646.52238	-19.25
646.5383	-16.05
646.55422	-11.65
646.57014	-7.55
646.58605	-6.25
646.60196	5.15
646.61787	-1.85
646.63377	-1.95
646.64968	5.55
646.66558	-3.45
646.68148	-12.55
646.69737	3.85
646.71327	-0.85
646.72916	-3.65
646.74505	0.55
646.76093	14.95
646.77682	12.15
646.7927	-2.75
646.80858	-0.45
646.82446	-16.85
646.84033	-3.65
646.8562	-3.55
646.87207	-5.05
646.88794	6.15
646.9038	-12.85
646.91966	-3.15
646.93552	-2.35
646.95138	-11.85
646.96723	1.45
646.98309	18.55
646.99894	5.65
647.01478	-1.35
647.03063	12.35
647.04647	-1.05
647.06231	-4.95
647.07815	-12.65
647.09398	-12.15
647.10981	-4.65
647.12564	-12.95
647.14147	0.35
647.1573	19.85
647.17312	4.75
647.18894	-1.35
647.20476	-22.15
647.22057	-23.65
647.23638	-6.85
647.25219	-6.45
647.268	-9.45
647.28381	-10.45
647.29961	9.75
647.31541	4.15
647.33121	0.95
647.34701	9.15
647.3628	0.25
647.37859	6.45
647.39438	-1.25
647.41016	-3.05
647.42595	-5.85
647.44173	-0.65
647.45751	-0.35
647.47328	4.35
647.48905	0.35
647.50483	16.25
647.52059	8.55
647.53636	-1.15
647.55212	-12.85
647.56789	13.45
647.58364	55.85
647.5994	2.65
647.61515	-9.05
647.63091	2.55
647.64665	1.85
647.6624	-1.05
647.67814	-15.75
647.69389	-18.15
647.70963	-7.05
647.72536	-20.45
647.7411	-22.65
647.75683	-14.35
647.77256	1.35
647.78828	2.15
647.80401	-2.85
647.81973	4.75
647.83545	11.85
647.85117	5.05
647.86688	-2.75
647.88259	-7.65
647.8983	0.85
647.91401	16.25
647.92971	17.55
647.94542	-2.45
647.96112	3.75
647.97681	8.15
647.99251	-2.35
648.0082	-0.45
648.02389	3.95
648.03958	-8.55
648.05526	-3.45
648.07095	-6.85
648.08663	-1.35
648.1023	-16.35
648.11798	-15.75
648.13365	-16.35
648.14932	-2.35
648.16499	-1.05
648.18066	-4.45
648.19632	-10.45
648.21198	-8.05
648.22764	-3.45
648.24329	2.35
648.25895	8.15
648.2746	-7.05
648.29025	-2.45
648.30589	2.55
648.32153	1.95
648.33718	-5.65
648.35281	14.85
648.36845	36.55
648.38408	85.45
648.39971	3.85
648.41534	-12.35
648.43097	0.35
648.44659	1.85
648.46221	9.95
648.47783	4.85
648.49345	-17.25
648.50906	-0.55
648.52467	7.25
648.54028	-12.05
648.55589	-9.85
648.57149	8.65
648.5871	1.05
648.6027	-5.15
648.61829	3.35
648.63389	-3.25
648.64948	3.75
648.66507	5.15
648.68065	-7.25
648.69624	3.75
648.71182	21.65
648.7274	29.95
648.74298	21.25
648.75855	32.95
648.77412	23.05
648.78969	1.05
648.80526	-18.05
648.82083	-4.95
648.83639	-0.15
648.85195	-8.05
648.8675	-2.05
648.88306	3.15
648.89861	-5.85
648.91416	-11.55
648.92971	5.35
648.94526	18.15
648.9608	23.45
648.97634	14.45
648.99188	3.35
649.00741	2.35
649.02294	-4.45
649.03847	0.15
649.054	-9.25
649.06953	3.55
649.08505	-8.65
649.10057	4.85
649.11609	-9.45
649.13161	2.25
649.14712	0.35
649.16263	-5.35
649.17814	-0.35
649.19364	4.55
649.20915	28.65
649.22465	32.85
649.24015	26.05
649.25564	30.15
649.27114	13.35
649.28663	-1.75
649.30212	-4.25
649.3176	-1.35
649.33309	-14.65
649.34857	-3.05
649.36405	8.15
649.37952	13.45
649.395	12.85
649.41047	19.75
649.42594	15.55
649.4414	0.45
649.45687	3.15
649.47233	-6.85
649.48779	2.85
649.50324	17.75
649.5187	15.35
649.53415	14.65
649.5496	14.85
649.56505	16.45
649.58049	13.35
649.59593	1.85
649.61137	-1.75
649.62681	7.65
649.64224	-3.65
649.65768	-9.75
649.67311	17.05
649.68853	23.95
649.70396	11.45
649.71938	17.65
649.7348	8.05
649.75022	34.25
649.76563	10.95
649.78105	14.15
649.79646	-0.65
649.81186	12.55
649.82727	17.15
649.84267	2.15
649.85807	13.35
649.87347	-2.35
649.88886	1.55
649.90426	8.95
649.91965	8.85
649.93504	-3.25
649.95042	14.65
649.9658	2.45
649.98119	8.65
649.99656	17.15
650.01194	7.45
650.02731	9.45
650.04268	11.65
650.05805	12.55
650.07342	29.45
650.08878	52.55
650.10414	95.45
650.1195	261.65
650.13486	1124.15
650.15021	3065.65
650.16556	4681.85
650.18091	4281.55
650.19626	3023.45
650.2116	2199.85
650.22694	1389.05
650.24228	809.15
650.25762	413.75
650.27295	204.65
650.28828	100.55
650.30361	69.85
650.31894	32.75
650.33426	18.45
650.34958	21.75
650.3649	57.15
650.38022	26.45
650.39553	0.45
650.41085	5.75
650.42616	7.35
650.44146	10.65
650.45677	6.65
650.47207	7.75
650.48737	16.15
650.50267	-6.45
650.51796	-11.85
650.53325	1.75
650.54854	16.85
650.56383	12.65
650.57911	4.85
650.5944	2.75
650.60968	11.05
650.62495	9.45
650.64023	7.55
650.6555	-8.75
650.67077	-9.25
650.68604	0.65
650.70131	9.65
650.71657	5.85
650.73183	13.95
650.74709	6.25
650.76234	-1.55
650.77759	6.85
650.79285	12.35
650.80809	8.55
650.82334	3.55
650.83858	0.95
650.85382	7.25
650.86906	14.15
650.8843	31.55
650.89953	6.05
650.91476	-1.85
650.92999	-9.55
650.94522	-2.55
650.96044	6.35
650.97566	5.05
650.99088	-5.05
651.00609	-12.55
651.02131	-9.25
651.03652	-0.35
651.05173	-0.55
651.06693	-25.55
651.08214	-11.75
651.09734	-10.35
651.11254	-9.05
651.12773	-11.25
651.14293	6.55
651.15812	-10.85
651.17331	-2.05
651.1885	13.95
651.20368	-11.25
651.21886	-14.75
651.23404	3.55
651.24922	10.15
651.26439	0.55
651.27956	-4.65
651.29473	-6.85
651.3099	10.85
651.32507	-23.75
651.34023	-10.35
651.35539	-10.35
651.37054	-23.85
651.3857	-33.05
651.40085	-6.15
651.416	3.75
651.43115	-7.35
651.44629	-15.05
651.46144	-16.35
651.47658	6.95
651.49171	23.75
651.50685	10.15
651.52198	2.65
651.53711	-6.05
651.55224	-13.65
651.56736	-4.95
651.58249	6.05
651.59761	7.65
651.61273	-20.95
651.62784	-5.85
651.64295	-2.75
651.65806	-11.05
651.67317	-11.35
651.68828	-6.15
651.70338	5.55
651.71848	17.45
651.73358	28.05
651.74868	-6.45
651.76377	-2.75
651.77886	-0.65
651.79395	-8.05
651.80904	-10.15
651.82412	12.85
651.8392	-0.55
651.85428	4.05
651.86935	6.15
651.88443	9.55
651.8995	-3.65
651.91457	-12.35
651.92963	-5.35
651.9447	24.55
651.95976	12.05
651.97482	1.95
651.98988	2.15
652.00493	-10.75
652.01998	0.35
652.03503	18.75
652.05008	32.45
652.06512	90.65
652.08016	6.95
652.0952	4.15
652.11024	39.85
652.12527	11.05
652.14031	-1.55
652.15534	2.45
652.17036	10.95
652.18539	-0.35
652.20041	11.65
652.21543	3.25
652.23045	-8.25
652.24546	-1.85
652.26047	7.85
652.27548	6.05
652.29049	4.05
652.3055	-4.05
652.3205	7.05
652.3355	3.65
652.3505	-3.05
652.36549	2.85
652.38048	11.35
652.39547	14.45
652.41046	6.55
652.42545	19.15
652.44043	19.15
652.45541	0.75
652.47039	12.25
652.48536	2.65
652.50034	-17.95
652.51531	-18.35
652.53028	-4.65
652.54524	-3.75
652.5602	-3.85
652.57517	-11.65
652.59012	30.35
652.60508	84.75
652.62003	8.25
652.63498	-9.55
652.64993	-12.05
652.66488	-4.25
652.67982	14.65
652.69476	19.65
652.7097	2.15
652.72464	2.35
652.73957	32.55
652.7545	114.65
652.76943	466.15
652.78436	1174.15
652.79928	1768.25
652.8142	1653.35
652.82912	1116.25
652.84404	821.95
652.85895	568.35
652.87387	391.85
652.88877	249.45
652.90368	134.35
652.91859	43.75
652.93349	22.65
652.94839	17.35
652.96328	13.85
652.97818	-0.95
652.99307	3.25
653.00796	12.35
653.02285	-2.15
653.03773	6.95
653.05261	-2.95
653.06749	-7.55
653.08237	-12.45
653.09725	-6.75
653.11212	-2.25
653.12699	-5.35
653.14186	13.05
653.15672	31.95
653.17158	-1.45
653.18644	14.45
653.2013	2.75
653.21616	10.05
653.23101	16.35
653.24586	-5.75
653.26071	-17.25
653.27555	8.85
653.29039	14.65
653.30524	-6.05
653.32007	-2.15
653.33491	216.55
653.34974	527.35
653.36457	40.35
653.3794	-4.65
653.39423	-9.85
653.40905	-12.05
653.42387	-11.25
653.43869	-9.65
653.45351	-10.55
653.46832	-17.85
653.48313	-15.85
653.49794	-5.55
653.51274	10.05
653.52755	14.55
653.54235	-1.75
653.55715	-21.15
653.57194	-8.45
653.58674	1.55
653.60153	-0.15
653.61632	-10.65
653.6311	-24.05
653.64589	-12.95
653.66067	6.85
653.67545	-0.95
653.69023	-15.15
653.705	-17.05
653.71977	-13.25
653.73454	-8.05
653.74931	-11.65
653.76407	-1.05
653.77883	0.65
653.79359	2.25
653.80835	-2.45
653.8231	-2.75
653.83786	2.55
653.85261	23.85
653.86735	9.15
653.8821	40.95
653.89684	3.25
653.91158	5.25
653.92632	16.55
653.94105	5.65
653.95579	10.45
653.97052	-15.15
653.98524	-17.25
653.99997	-8.65
654.01469	-2.85
654.02941	-2.45
654.04413	9.25
654.05884	0.25
654.07356	15.35
654.08827	62.35
654.10297	128.95
654.11768	23.45
654.13238	24.85
654.14708	5.35
654.16178	-10.75
654.17648	-7.25
654.19117	-23.25
654.20586	-24.35
654.22055	-1.65
654.23524	5.45
654.24992	50.45
654.2646	90.95
654.27928	27.75
654.29395	16.05
654.30863	24.15
654.3233	26.05
654.33797	14.85
654.35263	8.55
654.3673	11.95
654.38196	7.45
654.39662	-17.35
654.41127	-2.25
654.42593	4.85
654.44058	6.95
654.45523	-14.55
654.46987	-16.95
654.48452	-0.55
654.49916	9.85
654.5138	1.45
654.52844	0.85
654.54307	4.55
654.5577	17.55
654.57233	1.35
654.58696	3.55
654.60158	3.85
654.6162	-4.45
654.63082	-6.75
654.64544	2.75
654.66005	-4.45
654.67467	-7.05
654.68928	4.35
654.70388	6.95
654.71849	8.05
654.73309	43.35
654.74769	107.95
654.76229	5.05
654.77688	10.15
654.79148	2.75
654.80607	-8.65
654.82065	8.95
654.83524	6.75
654.84982	4.05
654.8644	-2.65
654.87898	-11.35
654.89355	-9.05
654.90813	-1.95
654.9227	-9.15
654.93727	-10.15
654.95183	-2.85
654.96639	4.05
654.98095	10.35
654.99551	0.15
655.01007	12.55
655.02462	-16.35
655.03917	-12.85
655.05372	-14.05
655.06827	-7.85
655.08281	4.15
655.09735	-3.15
655.11189	-10.85
655.12643	-7.95
655.14096	-4.55
655.15549	1.85
655.17002	-13.65
655.18454	-11.25
655.19907	1.65
655.21359	12.95
655.22811	19.75
655.24262	5.55
655.25714	0.25
655.27165	-2.05
655.28616	-21.45
655.30067	-14.85
655.31517	-6.15
655.32967	-3.95
655.34417	-7.95
655.35867	-10.55
655.37316	-8.25
655.38765	-15.55
655.40214	-0.45
655.41663	8.85
655.43111	5.45
655.4456	15.75
655.46008	-15.55
655.47455	-13.35
655.48903	-7.35
655.5035	-7.25
655.51797	-6.25
655.53244	4.65
655.5469	13.45
655.56136	20.85
655.57582	0.55
655.59028	-2.75
655.60474	-16.05
655.61919	-9.75
655.63364	17.85
655.64809	25.05
655.66253	0.15
655.67697	-7.65
655.69141	9.25
655.70585	-0.45
655.72029	-5.35
655.73472	-7.45
655.74915	-15.05
655.76358	-11.45
655.778	-1.05
655.79243	27.95
655.80685	10.15
655.82127	-1.75
655.83568	9.05
655.8501	35.95
655.86451	8.75
655.87891	12.65
655.89332	2.25
655.90772	-11.55
655.92212	-12.35
655.93652	15.85
655.95092	5.95
655.96531	-5.45
655.9797	-9.65
655.99409	9.15
656.00848	-0.95
656.02286	11.25
656.03724	6.95
656.05162	-4.85
656.066	-21.55
656.08037	-11.25
656.09475	-6.15
656.10911	-6.25
656.12348	1.05
656.13784	7.95
656.15221	5.15
656.16657	18.95
656.18092	9.75
656.19528	14.55
656.20963	-0.05
656.22398	-8.85
656.23833	6.85
656.25267	6.85
656.26701	14.15
656.28135	-5.25
656.29569	-4.35
656.31002	11.35
656.32436	21.35
656.33869	21.85
656.35301	-3.95
656.36734	6.15
656.38166	-6.45
656.39598	-16.65
656.4103	-16.95
656.42461	-10.45
656.43892	-7.35
656.45323	-9.35
656.46754	-4.45
656.48185	-2.95
656.49615	-4.25
656.51045	1.35
656.52475	1.75
656.53904	-5.25
656.55334	-12.35
656.56763	-9.55
656.58192	-5.25
656.5962	-1.15
656.61048	-10.45
656.62476	-4.65
656.63904	-1.35
656.65332	2.85
656.66759	-4.25
656.68186	-8.25
656.69613	-3.05
656.7104	-5.45
656.72466	8.05
656.73892	2.85
656.75318	11.65
656.76744	-6.85
656.78169	1.45
656.79594	23.45
656.81019	44.95
656.82444	-12.35
656.83868	-5.65
656.85292	-1.45
656.86716	-2.45
656.8814	4.15
656.89563	-5.55
656.90986	-11.15
656.92409	-2.95
656.93832	6.65
656.95254	2.65
656.96676	1.95
656.98098	18.35
656.9952	2.85
657.00941	7.15
657.02363	-17.05
657.03784	-15.95
657.05204	-5.05
657.06625	24.05
657.08045	-1.15
657.09465	3.05
657.10885	-16.95
657.12304	-8.25
657.13723	-7.45
657.15142	-1.85
657.16561	-9.55
657.1798	-13.75
657.19398	-28.95
657.20816	-11.65
657.22234	-11.85
657.23651	-5.45
657.25068	-2.65
657.26485	-2.65
657.27902	-7.05
657.29319	-22.45
657.30735	-1.45
657.32151	-6.75
657.33567	6.15
657.34982	28.25
657.36398	9.65
657.37813	10.45
657.39227	-11.45
657.40642	8.05
657.42056	16.65
657.4347	-0.45
657.44884	-0.35
657.46298	-5.65
657.47711	13.75
657.49124	18.15
657.50537	-9.95
657.5195	-8.55
657.53362	-13.45
657.54774	-3.85
657.56186	24.85
657.57598	32.55
657.59009	-0.35
657.6042	1.95
657.61831	-1.55
657.63242	-1.05
657.64652	-1.25
657.66062	7.65
657.67472	14.55
657.68882	7.25
657.70291	-4.45
657.717	0.55
657.73109	-3.25
657.74518	5.05
657.75926	-8.35
657.77335	-16.75
657.78742	-11.25
657.8015	-12.05
657.81558	0.55
657.82965	4.95
657.84372	-10.05
657.85778	1.65
657.87185	-10.45
657.88591	3.65
657.89997	-4.55
657.91403	11.75
657.92808	13.05
657.94214	0.95
657.95618	6.45
657.97023	-5.25
657.98428	8.75
657.99832	42.85
658.01236	7.65
658.0264	-24.25
658.04043	-10.15
658.05447	-0.75
658.0685	-23.05
658.08252	-17.35
658.09655	1.35
658.11057	14.85
658.12459	15.75
658.13861	25.15
658.15263	3.85
658.16664	18.95
658.18065	3.85
658.19466	-12.55
658.20866	-19.25
658.22267	-12.55
658.23667	6.75
658.25067	2.65
658.26466	0.55
658.27865	0.05
658.29265	-8.55
658.30663	-4.95
658.32062	-5.55
658.3346	-7.05
658.34858	-2.65
658.36256	1.35
658.37654	-6.15
658.39051	11.85
658.40448	9.75
658.41845	3.65
658.43242	-1.85
658.44638	-11.05
658.46035	-16.05
658.4743	-3.35
658.48826	10.45
658.50221	17.65
658.51617	5.25
658.53012	-10.25
658.54406	-12.85
658.55801	-5.05
658.57195	-8.15
658.58589	16.65
658.59983	11.55
658.61376	-14.45
658.62769	-9.45
658.64162	8.35
658.65555	10.75
658.66947	-0.15
658.6834	49.95
658.69731	142.05
658.71123	15.65
658.72515	14.55
658.73906	7.45
658.75297	4.35
658.76688	-0.85
658.78078	13.65
658.79468	-2.65
658.80858	-13.95
658.82248	-5.85
658.83638	1.65
658.85027	10.25
658.86416	-1.85
658.87805	-2.15
658.89193	-10.95
658.90582	-1.95
658.9197	2.75
658.93357	7.85
658.94745	-2.95
658.96132	-15.85
658.97519	2.15
658.98906	-14.35
659.00293	-15.95
659.01679	-19.15
659.03065	-7.45
659.04451	15.15
659.05837	4.15
659.07222	-2.15
659.08607	-1.35
659.09992	10.15
659.11377	2.55
659.12761	-10.05
659.14145	-0.95
659.15529	5.95
659.16913	7.05
659.18296	6.15
659.19679	-5.85
659.21062	2.55
659.22445	2.75
659.23827	45.65
659.25209	32.75
659.26591	15.45
659.27973	21.15
659.29354	4.25
659.30735	-3.25
659.32116	10.65
659.33497	10.35
659.34877	10.25
659.36258	111.25
659.37637	444.05
659.39017	1051.35
659.40397	1588.15
659.41776	1585.55
659.43155	1109.55
659.44533	756.15
659.45912	612.25
659.4729	438.45
659.48668	338.75
659.50046	228.15
659.51423	138.55
659.52801	96.65
659.54178	71.55
659.55554	24.95
659.56931	16.95
659.58307	13.65
659.59683	16.45
659.61059	11.05
659.62434	52.45
659.6381	100.15
659.65185	0.85
659.6656	-9.95
659.67934	-2.55
659.69308	-3.85
659.70682	0.65
659.72056	0.85
659.7343	5.15
659.74803	-6.45
659.76176	-4.95
659.77549	0.35
659.78922	18.35
659.80294	-17.65
659.81666	-17.25
659.83038	4.05
659.84409	2.45
659.85781	-10.45
659.87152	-11.25
659.88523	-4.65
659.89893	-1.75
659.91264	13.45
659.92634	23.05
659.94004	11.75
659.95373	4.35
659.96743	2.05
659.98112	3.15
659.99481	0.25
660.00849	2.15
660.02218	7.65
660.03586	5.85
660.04954	-18.75
660.06322	-5.55
660.07689	25.55
660.09056	29.35
660.10423	-16.05
660.1179	1.85
660.13156	9.65
660.14522	2.55
660.15888	-5.05
660.17254	-3.65
660.1862	5.35
660.19985	-2.35
660.2135	-16.75
660.22714	-0.95
660.24079	-0.85
660.25443	-11.65
660.26807	1.15
660.28171	9.65
660.29534	8.35
660.30898	2.15
660.32261	-8.95
660.33623	-21.15
660.34986	-25.35
660.36348	3.25
660.3771	1.25
660.39072	26.15
660.40433	19.15
660.41795	11.15
660.43156	-11.05
660.44517	-0.55
660.45877	6.85
660.47237	-5.15
660.48598	-5.35
660.49957	-10.05
660.51317	-1.95
660.52676	-7.15
660.54035	6.45
660.55394	17.45
660.56753	3.35
660.58111	12.65
660.59469	20.75
660.60827	-10.65
660.62185	-0.15
660.63542	7.65
660.64899	8.05
660.66256	21.25
660.67613	6.15
660.68969	11.55
660.70325	13.75
660.71681	-6.05
660.73037	-16.55
660.74392	-1.45
660.75747	-6.95
660.77102	-1.15
660.78457	-9.75
660.79811	11.35
660.81165	20.15
660.82519	4.25
660.83873	-3.65
660.85226	7.15
660.86579	14.95
660.87932	2.55
660.89285	-4.45
660.90637	12.65
660.9199	12.75
660.93342	5.25
660.94693	12.75
660.96045	-8.75
660.97396	10.25
660.98747	21.15
661.00098	-3.55
661.01448	-16.75
661.02798	-6.65
661.04148	1.65
661.05498	18.75
661.06848	-1.45
661.08197	-10.25
661.09546	19.75
661.10895	45.65
661.12243	4.05
661.13591	-0.85
661.14939	-14.55
661.16287	-8.65
661.17635	17.25
661.18982	14.15
661.20329	31.15
661.21676	27.05
661.23022	8.15
661.24369	-0.35
661.25715	0.75
661.27061	-7.65
661.28406	8.05
661.29752	-19.65
661.31097	-11.15
661.32441	0.65
661.33786	-10.85
661.3513	-18.75
661.36474	-8.05
661.37818	-4.85
661.39162	-7.85
661.40505	64.65
661.41848	176.35
661.43191	14.75
661.44534	-2.25
661.45876	2.35
661.47218	10.35
661.4856	11.35
661.49902	7.95
661.51243	-7.65
661.52585	14.95
661.53925	7.75
661.55266	0.85
661.56606	-7.05
661.57947	2.75
661.59287	-10.75
661.60626	-10.75
661.61966	4.15
661.63305	-2.05
661.64644	-0.15
661.65983	0.55
661.67321	6.95
661.68659	6.35
661.69997	25.45
661.71335	7.85
661.72672	23.15
661.7401	63.75
661.75347	1.05
661.76683	3.05
661.7802	18.85
661.79356	26.25
661.80692	-10.35
661.82028	2.35
661.83363	-1.65
661.84698	-8.35
661.86033	8.35
661.87368	9.75
661.88703	7.05
661.90037	2.75
661.91371	-2.75
661.92705	-6.85
661.94038	-2.25
661.95372	0.65
661.96705	21.95
661.98038	34.65
661.9937	3.05
662.00702	-5.65
662.02034	12.15
662.03366	2.25
662.04698	0.65
662.06029	-8.05
662.0736	-11.95
662.08691	-12.75
662.10022	-7.45
662.11352	4.65
662.12682	6.25
662.14012	-22.55
662.15342	-5.05
662.16671	11.65
662.18	-5.75
662.19329	-4.65
662.20658	-9.25
662.21986	-7.65
662.23314	-8.55
662.24642	-15.15
662.2597	5.75
662.27297	0.05
662.28624	-8.65
662.29951	1.25
662.31278	-9.65
662.32604	-10.75
662.3393	-8.05
662.35256	-10.05
662.36582	-10.25
662.37907	-8.85
662.39233	-4.65
662.40558	0.15
662.41882	2.55
662.43207	8.85
662.44531	-0.65
662.45855	-12.75
662.47179	-9.35
662.48502	-7.55
662.49825	-7.85
662.51148	8.75
662.52471	14.55
662.53794	1.05
662.55116	7.05
662.56438	1.75
662.5776	-4.35
662.59081	8.45
662.60402	13.15
662.61723	1.05
662.63044	13.55
662.64365	3.25
662.65685	-0.35
662.67005	11.45
662.68325	22.95
662.69644	-5.65
662.70964	-5.55
662.72283	3.65
662.73601	5.95
662.7492	14.95
662.76238	5.35
662.77556	-0.55
662.78874	14.35
662.80192	17.15
662.81509	19.35
662.82826	10.25
662.84143	-10.95
662.8546	-3.75
662.86776	1.35
662.88092	-11.65
662.89408	-10.45
662.90724	4.85
662.92039	36.05
662.93354	1.85
662.94669	-10.45
662.95984	1.05
662.97298	-4.75
662.98612	-17.85
662.99926	-14.65
663.0124	6.65
663.02553	2.65
663.03866	5.65
663.05179	0.45
663.06492	5.05
663.07804	11.85
663.09116	14.95
663.10428	-3.75
663.1174	-8.15
663.13052	1.65
663.14363	0.05
663.15674	-13.85
663.16984	-3.15
663.18295	8.35
663.19605	8.85
663.20915	12.55
663.22225	11.55
663.23534	11.35
663.24843	-12.95
663.26152	-14.95
663.27461	-12.35
663.2877	-4.45
663.30078	-4.55
663.31386	0.45
663.32694	6.05
663.34001	15.45
663.35308	8.45
663.36615	-5.75
663.37922	15.05
663.39229	22.75
663.40535	-17.05
663.41841	-15.95
663.43147	-10.75
663.44452	3.45
663.45758	8.25
663.47063	5.85
663.48368	5.35
663.49672	5.05
663.50977	-12.85
663.52281	-3.55
663.53584	-3.15
663.54888	-15.65
663.56191	-17.75
663.57494	-16.75
663.58797	-21.05
663.601	-9.85
663.61402	-2.85
663.62704	1.35
663.64006	-2.05
663.65308	-2.25
663.66609	-15.05
663.6791	-14.85
663.69211	23.85
663.70512	30.25
663.71812	-5.15
663.73112	-9.65
663.74412	-9.85
663.75712	11.25
663.77011	1.25
663.78311	-1.75
663.79609	9.15
663.80908	7.25
663.82207	0.15
663.83505	-21.95
663.84803	-13.55
663.861	-5.75
663.87398	-2.15
663.88695	-3.65
663.89992	-6.15
663.91289	-4.15
663.92585	-1.05
663.93881	-10.55
663.95177	7.35
663.96473	35.15
663.97769	10.25
663.99064	-14.45
664.00359	-2.95
664.01654	16.65
664.02948	10.05
664.04242	6.35
664.05536	2.95
664.0683	0.65
664.08124	1.25
664.09417	10.35
664.1071	11.55
664.12003	9.95
664.13295	-3.45
664.14588	-9.65
664.1588	-5.95
664.17171	-12.15
664.18463	-1.05
664.19754	-7.05
664.21045	13.05
664.22336	7.05
664.23627	6.25
664.24917	3.85
664.26207	-2.35
664.27497	-4.85
664.28787	9.45
664.30076	16.55
664.31365	-0.45
664.32654	1.95
664.33942	-8.05
664.35231	-3.45
664.36519	-6.25
664.37807	-3.55
664.39094	4.05
664.40382	12.15
664.41669	12.95
664.42956	8.65
664.44242	1.05
664.45529	-0.95
664.46815	-2.65
664.48101	-0.95
664.49387	14.05
664.50672	-26.15
664.51957	-16.15
664.53242	1.95
664.54527	2.35
664.55811	4.75
664.57095	-2.15
664.58379	-1.15
664.59663	-17.65
664.60946	-5.45
664.6223	8.85
664.63513	14.35
664.64795	11.85
664.66078	1.95
664.6736	-1.05
664.68642	-2.05
664.69924	-4.55
664.71205	7.25
664.72486	1.15
664.73767	2.15
664.75048	15.25
664.76329	12.35
664.77609	3.35
664.78889	24.25
664.80169	9.85
664.81448	-5.75
664.82728	-3.05
664.84007	1.95
664.85285	-12.35
664.86564	1.55
664.87842	-8.75
664.8912	-7.35
664.90398	12.55
664.91676	13.75
664.92953	-0.55
664.9423	8.65
664.95507	13.75
664.96783	11.55
664.9806	14.45
664.99336	1.65
665.00612	3.35
665.01887	13.05
665.03163	2.35
665.04438	11.15
665.05713	23.35
665.06987	-5.55
665.08262	-23.25
665.09536	-11.25
665.1081	0.05
665.12083	0.15
665.13357	-5.25
665.1463	21.35
665.15903	13.15
665.17175	19.35
665.18448	-1.95
665.1972	5.25
665.20992	0.55
665.22263	6.15
665.23535	32.55
665.24806	77.05
665.26077	2.05
665.27348	-12.55
665.28618	15.55
665.29888	14.15
665.31158	-6.55
665.32428	17.75
665.33697	12.15
665.34967	-2.25
665.36236	-6.75
665.37504	-1.85
665.38773	5.75
665.40041	19.95
665.41309	12.75
665.42577	8.45
665.43844	-4.95
665.45111	2.15
665.46378	-1.95
665.47645	2.05
665.48912	8.95
665.50178	11.65
665.51444	-5.35
665.5271	8.35
665.53975	-0.15
665.55241	-7.65
665.56506	-6.45
665.5777	-7.85
665.59035	7.95
665.60299	13.55
665.61563	14.35
665.62827	18.55
665.64091	8.25
665.65354	-10.65
665.66617	-0.35
665.6788	1.35
665.69142	10.85
665.70405	8.55
665.71667	-7.25
665.72929	-3.85
665.7419	3.75
665.75452	-16.85
665.76713	-10.65
665.77974	-6.15
665.79234	23.05
665.80495	14.15
665.81755	8.05
665.83015	-13.05
665.84274	11.25
665.85534	-2.85
665.86793	-3.15
665.88052	4.45
665.8931	14.15
665.90569	-5.55
665.91827	-8.25
665.93085	-17.25
665.94343	11.85
665.956	8.05
665.96857	-15.25
665.98114	-15.45
665.99371	-26.95
666.00627	-28.45
666.01883	-11.15
666.03139	12.15
666.04395	13.65
666.05651	17.85
666.06906	23.75
666.08161	4.25
666.09415	-0.05
666.1067	1.75
666.11924	2.55
666.13178	-1.65
666.14432	-3.15
666.15685	-8.95
666.16939	-9.55
666.18192	-2.95
666.19444	2.85
666.20697	12.95
666.21949	19.35
666.23201	18.05
666.24453	2.85
666.25705	14.85
666.26956	0.05
666.28207	5.15
666.29458	0.25
666.30708	-4.85
666.31959	-0.85
666.33209	10.45
666.34458	6.15
666.35708	7.95
666.36957	19.15
666.38206	14.45
666.39455	12.35
666.40704	2.65
666.41952	9.15
666.432	6.85
666.44448	10.55
666.45696	-3.55
666.46943	-4.75
666.4819	2.25
666.49437	12.05
666.50684	13.05
666.5193	-12.35
666.53176	-21.75
666.54422	-11.65
666.55668	11.75
666.56913	-1.65
666.58158	0.85
666.59403	11.75
666.60648	6.95
666.61892	-1.45
666.63136	14.25
666.6438	9.05
666.65624	-0.35
666.66867	14.45
666.68111	8.85
666.69354	13.45
666.70596	13.85
666.71839	-0.15
666.73081	7.05
666.74323	-6.25
666.75565	13.25
666.76806	7.55
666.78047	-8.65
666.79288	0.65
666.80529	13.05
666.81769	1.55
666.8301	1.95
666.8425	6.35
666.85489	-9.65
666.86729	-1.05
666.87968	-10.85
666.89207	-5.65
666.90446	8.65
666.91684	12.55
666.92923	-1.35
666.94161	13.25
666.95399	29.65
666.96636	4.65
666.97873	0.75
666.9911	-20.55
667.00347	1.65
667.01584	11.65
667.0282	11.65
667.04056	-7.65
667.05292	-4.15
667.06528	5.75
667.07763	-6.65
667.08998	6.25
667.10233	18.05
667.11467	-7.25
667.12702	-8.15
667.13936	-1.65
667.1517	19.75
667.16403	5.65
667.17637	7.35
667.1887	-8.05
667.20103	-9.65
667.21335	-6.95
667.22568	0.75
667.238	8.65
667.25032	11.25
667.26263	26.65
667.27495	20.95
667.28726	44.25
667.29957	129.95
667.31188	394.35
667.32418	971.25
667.33648	1744.75
667.34878	2299.25
667.36108	2146.05
667.37337	1453.25
667.38566	1003.35
667.39795	767.35
667.41024	567.45
667.42252	446.35
667.43481	342.35
667.44709	230.05
667.45936	158.15
667.47164	114.85
667.48391	80.35
667.49618	30.45
667.50845	13.85
667.52071	29.25
667.53297	25.05
667.54523	23.15
667.55749	11.85
667.56975	11.35
667.582	-0.35
667.59425	6.25
667.6065	29.15
667.61874	6.35
667.63099	31.25
667.64323	24.15
667.65546	-6.25
667.6677	1.25
667.67993	3.65
667.69216	6.25
667.70439	-3.95
667.71662	-0.15
667.72884	6.05
667.74106	4.05
667.75328	2.35
667.76549	2.95
667.77771	2.15
667.78992	11.45
667.80213	3.55
667.81433	-6.95
667.82654	6.35
667.83874	10.95
667.85094	-17.35
667.86313	-18.85
667.87533	-16.15
667.88752	-2.25
667.89971	-1.45
667.91189	-3.55
667.92408	-9.75
667.93626	-0.65
667.94844	9.95
667.96061	13.85
667.97279	-0.45
667.98496	1.05
667.99713	-9.55
668.0093	-3.05
668.02146	14.95
668.03362	12.05
668.04578	-5.15
668.05794	-19.55
668.07009	-7.35
668.08224	4.15
668.09439	28.55
668.10654	17.45
668.11868	15.75
668.13083	10.15
668.14297	0.05
668.1551	6.35
668.16724	9.65
668.17937	9.05
668.1915	-10.85
668.20363	1.85
668.21575	7.95
668.22788	1.25
668.24	6.55
668.25211	19.35
668.26423	20.35
668.27634	-9.15
668.28845	-5.05
668.30056	-6.15
668.31266	-2.35
668.32477	-0.65
668.33687	-14.25
668.34897	-13.85
668.36106	1.95
668.37315	14.05
668.38524	0.45
668.39733	-2.15
668.40942	-12.85
668.4215	6.65
668.43358	-1.25
668.44566	3.85
668.45774	8.55
668.46981	-1.75
668.48188	-4.25
668.49395	1.45
668.50602	15.15
668.51808	5.85
668.53014	7.55
668.5422	5.35
668.55425	-2.05
668.56631	4.95
668.57836	-3.55
668.59041	9.65
668.60246	-5.15
668.6145	-15.55
668.62654	-10.45
668.63858	-0.95
668.65062	3.85
668.66265	15.15
668.67468	-11.25
668.68671	0.95
668.69874	31.35
668.71076	10.55
668.72278	2.35
668.7348	2.75
668.74682	3.65
668.75883	4.35
668.77085	-16.95
668.78286	-21.75
668.79486	-2.15
668.80687	7.35
668.81887	-6.15
668.83087	1.05
668.84287	-9.85
668.85486	12.35
668.86685	-15.05
668.87884	-11.45
668.89083	0.55
668.90282	14.75
668.9148	-0.05
668.92678	-2.15
668.93876	5.25
668.95073	5.15
668.9627	-0.65
668.97468	2.45
668.98664	10.85
668.99861	14.25
669.01057	9.65
669.02253	7.25
669.03449	16.85
669.04645	-1.85
669.0584	0.35
669.07035	4.45
669.0823	-1.85
669.09424	-17.25
669.10619	-12.95
669.11813	2.75
669.13007	9.35
669.142	4.35
669.15393	16.55
669.16587	2.35
669.17779	-3.15
669.18972	-13.75
669.20164	-17.75
669.21356	-3.75
669.22548	2.55
669.2374	-2.35
669.24931	-5.65
669.26123	-14.35
669.27313	2.15
669.28504	12.85
669.29694	-1.25
669.30885	0.35
669.32074	5.05
669.33264	11.45
669.34454	-4.35
669.35643	-14.15
669.36832	-9.85
669.3802	-2.15
669.39209	-15.65
669.40397	-8.65
669.41585	-7.85
669.42773	-16.95
669.4396	-24.05
669.45147	-23.25
669.46334	-11.05
669.47521	2.75
669.48707	-13.95
669.49894	-7.35
669.5108	1.15
669.52265	-3.75
669.53451	3.35
669.54636	-7.55
669.55821	-0.35
669.57006	-2.35
669.5819	-19.15
669.59375	-9.15
669.60559	-3.05
669.61742	-7.95
669.62926	-12.35
669.64109	-8.65
669.65292	1.65
669.66475	1.85
669.67658	-6.25
669.6884	-6.35
669.70022	-3.55
669.71204	21.25
669.72385	4.95
669.73567	-4.25
669.74748	-4.75
669.75928	-1.85
669.77109	0.55
669.78289	1.35
669.79469	0.45
669.80649	-7.85
669.81829	-8.75
669.83008	5.85
669.84187	-0.35
669.85366	-6.15
669.86545	-9.45
669.87723	5.65
669.88901	16.25
669.90079	13.15
669.91257	3.95
669.92434	16.65
669.93611	29.95
669.94788	21.25
669.95965	5.25
669.97141	-10.95
669.98317	-3.85
669.99493	1.15
670.00669	-1.35
670.01844	6.45
670.0302	12.55
670.04194	-1.65
670.05369	10.65
670.06544	-12.85
670.07718	-5.05
670.08892	1.15
670.10065	-1.25
670.11239	-2.95
670.12412	9.25
670.13585	5.65
670.14758	-4.85
670.1593	-9.85
670.17103	11.25
670.18275	35.35
670.19446	0.65
670.20618	2.35
670.21789	2.95
670.2296	5.75
670.24131	-8.45
670.25301	12.15
670.26472	26.95
670.27642	15.15
670.28811	1.55
670.29981	1.35
670.3115	-8.25
670.32319	-14.25
670.33488	-14.95
670.34656	-10.25
670.35825	13.85
670.36993	11.55
670.38161	-5.75
670.39328	-6.95
670.40496	-1.35
670.41663	-5.75
670.42829	5.85
670.43996	2.55
670.45162	-2.15
670.46328	-14.65
670.47494	-13.45
670.4866	-4.55
670.49825	4.85
670.5099	-0.35
670.52155	0.55
670.5332	9.65
670.54484	-4.15
670.55648	-6.45
670.56812	11.15
670.57976	0.85
670.59139	-11.55
670.60302	-12.25
670.61465	-1.75
670.62628	-7.05
670.6379	-12.75
670.64952	4.25
670.66114	-6.35
670.67276	-24.05
670.68438	-3.95
670.69599	2.15
670.7076	-7.35
670.7192	1.75
670.73081	28.05
670.74241	23.05
670.75401	-2.15
670.76561	9.45
670.7772	12.35
670.78879	-0.85
670.80038	-13.65
670.81197	-13.35
670.82355	-3.65
670.83514	1.45
670.84672	-11.15
670.85829	-14.85
670.86987	-12.25
670.88144	-1.25
670.89301	-14.75
670.90458	-20.75
670.91614	-13.85
670.92771	-0.35
670.93927	2.85
670.95083	7.95
670.96238	-0.35
670.97393	-10.25
670.98548	-7.55
670.99703	-14.35
671.00858	-10.95
671.02012	-5.65
671.03166	-16.55
671.0432	-14.45
671.05473	-1.95
671.06627	1.65
671.0778	-6.95
671.08933	-7.35
671.10085	9.15
671.11238	8.65
671.1239	3.35
671.13542	8.85
671.14693	4.05
671.15845	-3.85
671.16996	18.15
671.18147	49.45
671.19297	127.35
671.20448	337.75
671.21598	668.95
671.22748	1068.35
671.23897	1289.25
671.25047	1111.95
671.26196	733.55
671.27345	498.85
671.28493	349.35
671.29642	253.35
671.3079	183.45
671.31938	130.55
671.33085	87.05
671.34233	76.95
671.3538	60.85
671.36527	31.85
671.37674	5.45
671.3882	0.25
671.39966	-4.85
671.41112	-4.55
671.42258	-9.75
671.43404	1.75
671.44549	12.35
671.45694	1.35
671.46838	8.65
671.47983	4.15
671.49127	-2.25
671.50271	15.45
671.51415	4.05
671.52558	0.85
671.53702	4.05
671.54845	10.15
671.55987	-0.65
671.5713	-0.85
671.58272	-3.05
671.59414	8.05
671.60556	36.05
671.61698	22.05
671.62839	-2.85
671.6398	2.15
671.65121	-5.35
671.66261	-10.35
671.67402	-18.95
671.68542	-11.15
671.69681	-21.05
671.70821	-22.05
671.7196	-3.95
671.73099	-12.15
671.74238	-6.55
671.75377	-5.95
671.76515	-6.95
671.77653	-11.75
671.78791	-5.55
671.79929	15.45
671.81066	7.65
671.82203	10.25
671.8334	-12.75
671.84477	-2.65
671.85613	2.45
671.86749	4.95
671.87885	20.75
671.89021	41.45
671.90156	1.65
671.91291	-16.55
671.92426	-20.45
671.93561	-9.05
671.94695	-9.45
671.9583	-6.55
671.96963	14.45
671.98097	7.25
671.99231	7.25
672.00364	-20.45
672.01497	-1.35
672.02629	1.95
672.03762	-7.75
672.04894	-7.45
672.06026	-17.35
672.07158	-23.65
672.08289	-15.35
672.0942	-11.35
672.10551	23.45
672.11682	38.85
672.12813	10.25
672.13943	-2.05
672.15073	-6.25
672.16203	-8.65
672.17332	-11.55
672.18461	-8.05
672.1959	9.15
672.20719	13.95
672.21848	18.25
672.22976	20.15
672.24104	11.55
672.25232	2.65
672.26359	-4.05
672.27487	-5.75
672.28614	8.85
672.29741	4.65
672.30867	-5.35
672.31993	-5.55
672.33119	-1.55
672.34245	-3.45
672.35371	-15.85
672.36496	-10.05
672.37621	-5.55
672.38746	-15.15
672.39871	-12.15
672.40995	-10.55
672.42119	10.75
672.43243	27.95
672.44367	16.05
672.4549	-3.15
672.46613	10.65
672.47736	4.45
672.48859	11.25
672.49981	0.65
672.51103	-7.45
672.52225	1.85
672.53347	-2.95
672.54468	-5.75
672.55589	9.15
672.5671	-2.35
672.57831	-7.75
672.58951	3.05
672.60072	3.15
672.61191	-8.85
672.62311	-2.35
672.63431	-1.05
672.6455	4.45
672.65669	-4.45
672.66787	-9.95
672.67906	-13.25
672.69024	-13.85
672.70142	-13.25
672.7126	-5.55
672.72377	-17.15
672.73494	-13.15
672.74611	0.65
672.75728	-4.45
672.76845	-2.75
672.77961	-3.15
672.79077	-6.65
672.80193	-13.55
672.81308	2.45
672.82423	14.95
672.83539	12.55
672.84653	-2.25
672.85768	-5.25
672.86882	1.25
672.87996	3.75
672.8911	-6.05
672.90223	-0.75
672.91337	-6.95
672.9245	-13.35
672.93563	-11.05
672.94675	6.95
672.95788	9.75
672.969	-10.95
672.98011	0.25
672.99123	6.65
673.00234	-1.95
673.01345	-11.55
673.02456	-18.35
673.03567	-6.85
673.04677	4.95
673.05787	-7.95
673.06897	-10.75
673.08007	-7.55
673.09116	-4.05
673.10225	-18.85
673.11334	-1.05
673.12443	12.35
673.13551	14.55
673.14659	2.15
673.15767	-5.25
673.16875	-0.75
673.17982	-4.55
673.1909	-11.35
673.20196	-7.95
673.21303	-11.65
673.2241	-4.35
673.23516	5.55
673.24622	-0.95
673.25727	0.75
673.26833	-1.55
673.27938	9.45
673.29043	-0.35
673.30148	16.05
673.31252	0.85
673.32356	-3.95
673.3346	-6.15
673.34564	-5.05
673.35668	-9.25
673.36771	-16.95
673.37874	-5.05
673.38977	0.05
673.40079	8.55
673.41181	-3.65
673.42283	7.15
673.43385	-5.95
673.44487	3.35
673.45588	-12.05
673.46689	-19.95
673.4779	4.55
673.4889	15.75
673.4999	2.55
673.51091	-2.35
673.5219	2.95
673.5329	24.55
673.54389	11.35
673.55488	-5.75
673.56587	11.55
673.57686	12.25
673.58784	-1.25
673.59882	8.75
673.6098	-4.05
673.62077	14.35
673.63175	38.65
673.64272	9.95
673.65369	-6.65
673.66465	-1.15
673.67562	-11.15
673.68658	-2.85
673.69754	-16.25
673.70849	1.45
673.71945	6.95
673.7304	14.25
673.74135	34.75
673.75229	26.95
673.76324	30.05
673.77418	0.05
673.78512	0.45
673.79605	2.35
673.80699	8.35
673.81792	0.95
673.82885	7.05
673.83978	20.85
673.8507	14.85
673.86162	0.65
673.87254	-9.25
673.88346	8.85
673.89437	1.15
673.90529	2.35
673.9162	10.65
673.9271	3.75
673.93801	5.45
673.94891	-9.25
673.95981	-9.45
673.97071	-12.25
673.9816	-5.95
673.99249	-3.65
674.00338	2.45
674.01427	-5.75
674.02516	-5.35
674.03604	-19.95
674.04692	-9.85
674.0578	-2.65
674.06867	1.45
674.07954	2.65
674.09042	24.35
674.10128	-8.75
674.11215	-21.55
674.12301	-9.45
674.13387	-7.35
674.14473	-11.25
674.15559	-5.65
674.16644	-8.95
674.17729	-17.75
674.18814	-8.75
674.19898	-1.45
674.20983	-13.95
674.22067	-13.35
674.23151	-13.25
674.24234	-20.15
674.25318	-3.05
674.26401	23.05
674.27483	11.55
674.28566	-15.55
674.29648	-15.95
674.30731	-14.95
674.31812	-7.25
674.32894	-8.95
674.33975	6.05
674.35057	1.95
674.36137	-4.95
674.37218	6.35
674.38299	-20.55
674.39379	-21.85
674.40459	11.25
674.41538	5.05
674.42618	-6.05
674.43697	-13.75
674.44776	-16.55
674.45854	-6.55
674.46933	5.55
674.48011	4.65
674.49089	-8.15
674.50167	-7.65
674.51244	-10.05
674.52321	-21.75
674.53398	-33.55
674.54475	-23.35
674.55552	-6.85
674.56628	-7.95
674.57704	-5.65
674.5878	3.25
674.59855	-1.35
674.6093	0.25
674.62005	4.15
674.6308	3.25
674.64155	-8.95
674.65229	-11.65
674.66303	-4.25
674.67377	9.15
674.6845	10.65
674.69523	20.75
674.70596	5.15
674.71669	-6.25
674.72742	-17.45
674.73814	-16.35
674.74886	-4.65
674.75958	-3.45
674.77029	-1.15
674.78101	-15.15
674.79172	8.45
674.80243	6.25
674.81313	-0.15
674.82384	15.35
674.83454	-3.15
674.84524	-15.95
674.85593	-9.25
674.86663	1.75
674.87732	-14.85
674.888	-6.45
674.89869	-5.65
674.90937	-3.35
674.92006	10.15
674.93073	7.65
674.94141	-6.05
674.95208	1.15
674.96276	26.75
674.97343	16.55
674.98409	9.75
674.99476	9.05
675.00542	-8.25
675.01608	-8.35
675.02673	-8.75
675.03739	-5.95
675.04804	-2.45
675.05869	11.45
675.06934	11.85
675.07998	13.85
675.09062	-19.35
675.10126	-22.95
675.1119	-12.45
675.12253	11.95
675.13317	12.05
675.1438	0.15
675.15442	-6.65
675.16505	-9.05
675.17567	4.45
675.18629	19.85
675.19691	12.35
675.20752	4.35
675.21813	-0.45
675.22874	-6.45
675.23935	9.65
675.24996	7.35
675.26056	11.65
675.27116	3.25
675.28176	-4.35
675.29235	-6.95
675.30295	-3.45
675.31354	-0.65
675.32412	-4.15
675.33471	-21.85
675.34529	-13.55
675.35587	-16.15
675.36645	-24.15
675.37703	-21.55
675.3876	-8.05
675.39817	-4.15
675.40874	0.05
675.41931	-0.05
675.42987	12.15
675.44043	0.65
675.45099	-8.25
675.46154	-1.15
675.4721	4.65
675.48265	10.65
675.4932	17.65
675.50374	4.85
675.51429	-5.75
675.52483	-5.75
675.53537	-16.05
675.5459	-6.25
675.55644	8.95
675.56697	-1.95
675.5775	-6.25
675.58803	-11.85
675.59855	-3.35
675.60907	-8.75
675.61959	-13.85
675.63011	-10.05
675.64062	-19.95
675.65113	-10.75
675.66164	11.95
675.67215	-7.05
675.68265	-0.35
675.69316	-0.45
675.70366	-6.65
675.71415	10.55
675.72465	24.55
675.73514	9.05
675.74563	12.95
675.75612	-7.35
675.7666	-9.05
675.77708	1.75
675.78756	1.95
675.79804	-7.45
675.80852	14.15
675.81899	27.95
675.82946	4.75
675.83993	3.15
675.85039	7.15
675.86085	5.15
675.87131	13.05
675.88177	6.25
675.89223	9.85
675.90268	11.55
675.91313	4.45
675.92358	1.45
675.93402	-10.15
675.94447	1.35
675.95491	15.35
675.96535	-5.85
675.97578	6.05
675.98622	22.45
675.99665	-8.05
676.00707	5.35
676.0175	14.45
676.02792	7.05
676.03835	-2.95
676.04876	-2.15
676.05918	-2.35
676.06959	-2.85
676.08	17.95
676.09041	12.75
676.10082	-8.05
676.11122	-6.75
676.12162	55.15
676.13202	118.85
676.14242	20.65
676.15281	-5.65
676.16321	-17.25
676.17359	-15.65
676.18398	-20.05
676.19437	-3.45
676.20475	-7.55
676.21513	-9.15
676.2255	1.75
676.23588	18.75
676.24625	8.65
676.25662	-9.25
676.26699	-16.15
676.27735	-6.75
676.28771	14.15
676.29807	1.15
676.30843	4.65
676.31878	-3.95
676.32914	1.55
676.33949	6.45
676.34983	16.05
676.36018	1.85
676.37052	-7.95
676.38086	-11.05
676.3912	-10.35
676.40153	1.95
676.41187	10.95
676.4222	0.25
676.43252	5.15
676.44285	23.55
676.45317	1.35
676.46349	-13.75
676.47381	-3.15
676.48413	8.25
676.49444	-2.15
676.50475	4.75
676.51506	5.15
676.52536	16.65
676.53567	2.15
676.54597	3.65
676.55626	7.45
676.56656	-3.95
676.57685	-3.95
676.58714	3.75
676.59743	5.85
676.60772	2.95
676.618	-5.35
676.62828	-5.25
676.63856	-22.35
676.64884	-15.85
676.65911	-8.35
676.66938	-13.35
676.67965	-1.75
676.68992	15.85
676.70018	11.75
676.71044	-0.05
676.7207	32.55
676.73096	23.95
676.74121	11.45
676.75146	10.45
676.76171	15.25
676.77196	-2.65
676.7822	-17.35
676.79245	-8.95
676.80269	9.35
676.81292	-15.45
676.82316	-17.75
676.83339	9.65
676.84362	24.75
676.85385	-6.05
676.86407	4.05
676.87429	-0.75
676.88451	8.65
676.89473	7.65
676.90494	-30.45
676.91516	-17.95
676.92537	-9.05
676.93557	6.05
676.94578	-2.05
676.95598	-14.35
676.96618	-11.15
676.97638	-10.75
676.98657	-12.65
676.99677	-12.45
677.00696	2.35
677.01714	17.95
677.02733	8.95
677.03751	-1.25
677.04769	-0.25
677.05787	-3.95
677.06805	-3.05
677.07822	-3.85
677.08839	2.85
677.09856	-15.65
677.10872	-12.45
677.11889	-5.95
677.12905	10.95
677.13921	10.45
677.14936	-6.55
677.15951	-13.65
677.16967	0.75
677.17981	7.65
677.18996	4.85
677.2001	-10.05
677.21025	-14.05
677.22038	-7.55
677.23052	-6.75
677.24065	-11.95
677.25078	-0.75
677.26091	6.05
677.27104	1.65
677.28116	-7.15
677.29129	-0.55
677.3014	-4.05
677.31152	20.95
677.32164	84.35
677.33175	-1.65
677.34186	-5.55
677.35196	-4.65
677.36207	4.15
677.37217	9.55
677.38227	8.75
677.39236	6.25
677.40246	-5.05
677.41255	-12.35
677.42264	-4.05
677.43273	-0.95
677.44281	-1.95
677.45289	13.65
677.46297	-9.75
677.47305	-16.75
677.48313	-14.35
677.4932	-3.65
677.50327	-6.15
677.51334	-5.95
677.5234	-1.25
677.53346	12.15
677.54352	2.35
677.55358	-6.75
677.56364	4.85
677.57369	29.65
677.58374	7.95
677.59379	-18.95
677.60383	-17.25
677.61388	-2.15
677.62392	-3.45
677.63395	-6.85
677.64399	8.85
677.65402	17.35
677.66405	5.25
677.67408	-11.35
677.68411	-6.15
677.69413	3.55
677.70415	2.55
677.71417	1.15
677.72419	-15.65
677.7342	-6.25
677.74421	-17.15
677.75422	-16.05
677.76422	-5.65
677.77423	7.95
677.78423	12.15
677.79423	-3.45
677.80422	10.55
677.81422	2.85
677.82421	-15.65
677.8342	-11.25
677.84418	-8.95
677.85417	3.55
677.86415	13.25
677.87413	-3.45
677.88411	-8.45
677.89408	14.15
677.90405	5.75
677.91402	6.65
677.92399	10.25
677.93395	28.35
677.94391	13.95
677.95387	-9.45
677.96383	-7.45
677.97378	2.45
677.98374	-0.75
677.99369	-3.45
678.00363	10.05
678.01358	-6.55
678.02352	-4.95
678.03346	-0.55
678.0434	-4.75
678.05333	-6.35
678.06326	-0.05
678.07319	-7.55
678.08312	-4.05
678.09305	18.75
678.10297	5.15
678.11289	-11.65
678.12281	5.15
678.13272	1.55
678.14264	-4.95
678.15255	-2.35
678.16245	-6.65
678.17236	-8.75
678.18226	-6.65
678.19216	-8.25
678.20206	-20.15
678.21196	-14.45
678.22185	6.65
678.23174	5.15
678.24163	4.35
678.25151	7.45
678.2614	24.75
678.27128	17.05
678.28116	6.15
678.29103	17.25
678.30091	1.35
678.31078	-10.05
678.32065	-11.25
678.33051	5.15
678.34037	-4.75
678.35024	-20.85
678.36009	-9.65
678.36995	1.75
678.37981	2.75
678.38966	-18.55
678.39951	-8.45
678.40935	-3.95
678.4192	-5.65
678.42904	-20.95
678.43888	-3.65
678.44871	0.65
678.45855	11.05
678.46838	10.35
678.47821	-9.25
678.48804	-0.45
678.49786	21.75
678.50768	23.85
678.5175	6.25
678.52732	12.45
678.53713	6.65
678.54694	-8.05
678.55675	-19.15
678.56656	-9.05
678.57637	-12.15
678.58617	-10.25
678.59597	8.75
678.60577	4.35
678.61556	-16.35
678.62535	1.05
678.63514	20.55
678.64493	13.65
678.65472	-8.95
678.6645	9.05
678.67428	0.55
678.68406	0.95
678.69383	-3.35
678.7036	-7.55
678.71337	0.05
678.72314	7.15
678.73291	7.45
678.74267	-10.55
678.75243	-11.25
678.76219	-5.35
678.77195	3.25
678.7817	-6.35
678.79145	-3.35
678.8012	1.85
678.81094	-5.55
678.82069	-9.35
678.83043	55.65
678.84017	123.95
678.8499	-2.05
678.85964	-5.25
678.86937	3.65
678.87909	11.95
678.88882	4.65
678.89854	-4.25
678.90827	-1.25
678.91798	-3.85
678.9277	-3.35
678.93742	-17.05
678.94713	-5.15
678.95684	-2.95
678.96654	0.25
678.97625	-0.65
678.98595	9.05
678.99565	-11.55
679.00534	-18.65
679.01504	-15.25
679.02473	-13.65
679.03442	-7.95
679.04411	2.85
679.05379	-3.05
679.06347	-13.35
679.07315	-10.15
679.08283	0.15
679.0925	-1.75
679.10218	3.55
679.11185	-5.65
679.12151	-4.65
679.13118	0.05
679.14084	-13.65
679.1505	-9.85
679.16016	-13.45
679.16981	-16.75
679.17946	7.85
679.18911	11.35
679.19876	-15.05
679.20841	5.85
679.21805	8.55
679.22769	8.35
679.23733	7.55
679.24696	13.25
679.2566	-3.95
679.26623	0.05
679.27585	8.75
679.28548	-14.75
679.2951	-2.85
679.30472	-7.45
679.31434	-16.75
679.32396	-11.45
679.33357	-15.35
679.34318	12.45
679.35279	28.45
679.3624	-10.95
679.372	1.05
679.3816	13.15
679.3912	-8.45
679.40079	23.25
679.41039	9.05
679.41998	-4.75
679.42957	-6.45
679.43915	-13.85
679.44874	-0.45
679.45832	21.95
679.4679	4.95
679.47747	-13.95
679.48705	-12.45
679.49662	6.75
679.50619	6.95
679.51575	-10.85
679.52532	-5.15
679.53488	8.05
679.54444	-3.55
679.554	-4.35
679.56355	0.75
679.5731	6.45
679.58265	0.15
679.5922	-9.95
679.60174	6.85
679.61129	14.55
679.62083	-1.65
679.63036	-20.85
679.6399	-4.65
679.64943	15.25
679.65896	5.05
679.66849	-10.45
679.67801	0.05
679.68753	7.05
679.69705	17.25
679.70657	24.65
679.71609	17.15
679.7256	22.05
679.73511	12.55
679.74462	-10.65
679.75412	-6.55
679.76362	13.65
679.77312	13.65
679.78262	0.05
679.79212	0.05
679.80161	5.35
679.8111	-5.85
679.82059	-10.95
679.83007	6.45
679.83956	13.25
679.84904	3.75
679.85852	2.45
679.86799	-13.25
679.87747	-1.95
679.88694	-9.25
679.8964	-8.15
679.90587	-6.85
679.91533	10.65
679.92479	4.25
679.93425	-2.55
679.94371	13.05
679.95316	14.15
679.96261	4.75
679.97206	-6.35
679.98151	-8.05
679.99095	-8.75
680.00039	-4.95
680.00983	-5.15
680.01927	0.25
680.0287	-7.15
680.03814	15.05
680.04756	-10.25
680.05699	-10.55
680.06641	-0.85
680.07584	-9.25
680.08526	-19.05
680.09467	-5.25
680.10409	-10.45
680.1135	-19.95
680.12291	-13.85
680.13232	2.35
680.14172	17.65
680.15112	3.55
680.16052	-9.85
680.16992	-7.45
680.17931	2.35
680.18871	3.15
680.1981	-14.55
680.20748	-13.15
680.21687	-7.65
