Data from HR4C25001_14-53-18-997.txt Node
Date: Tue Jun 16 14:53:18 CDT 2026
User: jam28248
Spectrometer: HR4C2500
Trigger mode: 4
Integration Time (sec): 1.000000E-1
Scans to average: 5
Electric dark correction enabled: true
Nonlinearity correction enabled: false
Boxcar width: 0
XAxis mode: Wavelengths
Number of Pixels in Spectrum: 3648
>>>>>Begin Spectral Data<<<<<
629.66646	-51.68
629.6848	-51.68
629.70313	-51.68
629.72147	-84.68
629.7398	-60.48
629.75812	-7.48
629.77645	1.72
629.79477	10.52
629.81309	-5.48
629.83141	-13.48
629.84972	5.92
629.86803	4.52
629.88634	19.32
629.90465	-20.28
629.92295	-19.48
629.94126	-12.48
629.95956	-4.48
629.97785	41.12
629.99615	130.92
630.01444	128.92
630.03273	63.92
630.05102	31.32
630.0693	17.32
630.08759	22.92
630.10587	-0.28
630.12415	-4.08
630.14242	9.92
630.16069	-13.08
630.17896	-6.08
630.19723	6.92
630.2155	30.92
630.23376	100.92
630.25202	42.72
630.27028	27.32
630.28854	8.72
630.30679	0.92
630.32504	-4.28
630.34329	0.12
630.36153	7.12
630.37978	27.92
630.39802	11.32
630.41626	-2.48
630.43449	-6.28
630.45273	0.92
630.47096	13.52
630.48919	11.92
630.50741	19.32
630.52564	8.32
630.54386	15.12
630.56208	23.32
630.58029	0.72
630.59851	2.52
630.61672	4.52
630.63493	23.72
630.65313	9.72
630.67134	9.92
630.68954	6.72
630.70774	17.52
630.72594	18.32
630.74413	4.12
630.76232	-8.68
630.78051	-3.28
630.7987	1.32
630.81688	13.52
630.83507	27.32
630.85325	15.52
630.87142	8.32
630.8896	12.92
630.90777	2.32
630.92594	-16.68
630.94411	23.52
630.96227	38.12
630.98043	49.92
630.99859	13.52
631.01675	5.72
631.03491	1.92
631.05306	-4.48
631.07121	11.92
631.08936	8.32
631.1075	-3.68
631.12564	12.12
631.14379	16.92
631.16192	21.12
631.18006	13.52
631.19819	9.92
631.21632	0.72
631.23445	-12.48
631.25258	-2.68
631.2707	8.92
631.28882	8.72
631.30694	11.72
631.32505	0.92
631.34317	13.12
631.36128	6.32
631.37939	10.52
631.39749	5.52
631.4156	6.52
631.4337	-10.68
631.4518	0.32
631.46989	-12.28
631.48799	-12.68
631.50608	-4.08
631.52417	-15.48
631.54225	-0.68
631.56034	4.32
631.57842	6.72
631.5965	-4.48
631.61457	-26.68
631.63265	-8.68
631.65072	1.52
631.66879	-11.68
631.68685	10.32
631.70492	28.72
631.72298	16.52
631.74104	-4.48
631.7591	-3.48
631.77715	2.12
631.7952	13.52
631.81325	16.52
631.8313	-1.28
631.84934	14.72
631.86739	20.92
631.88543	-2.48
631.90346	10.52
631.9215	-3.28
631.93953	7.72
631.95756	7.52
631.97559	8.32
631.99361	-5.08
632.01163	-5.08
632.02965	0.72
632.04767	14.32
632.06569	9.12
632.0837	-2.48
632.10171	-9.28
632.11972	-16.88
632.13772	-0.88
632.15573	22.52
632.17373	-3.28
632.19172	-9.28
632.20972	-2.08
632.22771	-13.08
632.2457	-7.08
632.26369	0.72
632.28168	14.72
632.29966	-1.48
632.31764	6.32
632.33562	6.72
632.35359	13.52
632.37157	5.12
632.38954	8.72
632.40751	7.32
632.42547	-5.48
632.44344	14.72
632.4614	10.32
632.47936	3.32
632.49731	1.72
632.51527	-5.28
632.53322	11.72
632.55117	13.32
632.56911	5.72
632.58706	-1.48
632.605	1.32
632.62294	10.12
632.64087	11.12
632.65881	-6.48
632.67674	4.92
632.69467	5.72
632.7126	4.12
632.73052	21.72
632.74844	21.52
632.76636	30.32
632.78428	45.92
632.80219	59.92
632.8201	75.32
632.83801	59.72
632.85592	83.72
632.87383	148.52
632.89173	262.92
632.90963	731.72
632.92753	1872.32
632.94542	2812.32
632.96331	2203.72
632.9812	884.72
632.99909	292.72
633.01697	118.72
633.03486	63.52
633.05274	30.92
633.07061	17.32
633.08849	12.32
633.10636	20.52
633.12423	30.92
633.1421	15.52
633.15997	31.92
633.17783	17.72
633.19569	19.52
633.21355	22.12
633.2314	19.52
633.24926	-7.68
633.26711	1.52
633.28495	9.12
633.3028	-5.88
633.32064	2.32
633.33848	9.32
633.35632	25.92
633.37416	22.92
633.39199	6.52
633.40982	-7.28
633.42765	11.32
633.44548	-0.28
633.4633	-10.08
633.48112	-10.28
633.49894	-7.48
633.51676	9.12
633.53457	-0.28
633.55238	5.12
633.57019	-0.08
633.588	-7.08
633.6058	-13.28
633.6236	6.92
633.6414	12.52
633.6592	-5.28
633.67699	-19.08
633.69478	-8.68
633.71257	22.12
633.73036	12.92
633.74815	-10.88
633.76593	-2.48
633.78371	1.12
633.80148	-1.88
633.81926	-2.28
633.83703	-7.48
633.8548	-28.08
633.87257	-25.08
633.89033	-6.88
633.90809	3.32
633.92585	2.12
633.94361	-8.88
633.96137	-3.68
633.97912	6.72
633.99687	-22.28
634.01462	7.72
634.03236	15.92
634.0501	8.32
634.06784	-8.88
634.08558	15.72
634.10332	19.92
634.12105	-7.88
634.13878	12.52
634.15651	12.32
634.17423	3.32
634.19196	-3.48
634.20968	-2.68
634.22739	10.72
634.24511	5.12
634.26282	14.52
634.28053	24.32
634.29824	2.12
634.31595	3.52
634.33365	0.32
634.35135	-8.88
634.36905	-21.08
634.38675	2.32
634.40444	4.72
634.42213	-6.28
634.43982	0.32
634.4575	-10.68
634.47519	13.12
634.49287	27.72
634.51055	-3.88
634.52822	3.32
634.5459	-0.68
634.56357	-2.08
634.58124	-21.48
634.59891	-1.48
634.61657	2.12
634.63423	5.12
634.65189	14.12
634.66955	-0.88
634.6872	15.32
634.70485	3.72
634.7225	-4.48
634.74015	8.32
634.75779	0.72
634.77544	-0.68
634.79307	-0.88
634.81071	14.32
634.82835	8.92
634.84598	1.12
634.86361	-8.48
634.88123	15.12
634.89886	-0.88
634.91648	-4.88
634.9341	-7.88
634.95172	6.72
634.96933	7.52
634.98695	12.12
635.00456	-6.68
635.02216	2.72
635.03977	8.12
635.05737	5.72
635.07497	-3.28
635.09257	-0.28
635.11016	2.72
635.12776	4.12
635.14535	-8.88
635.16294	16.92
635.18052	4.72
635.1981	11.32
635.21569	8.92
635.23326	0.32
635.25084	11.72
635.26841	-0.68
635.28598	-2.48
635.30355	-7.48
635.32112	-8.88
635.33868	-18.48
635.35624	-11.88
635.3738	-5.48
635.39136	-13.08
635.40891	-13.68
635.42646	4.52
635.44401	5.12
635.46155	-8.68
635.4791	3.72
635.49664	8.72
635.51418	11.52
635.53171	-0.28
635.54925	-3.48
635.56678	-11.48
635.58431	2.52
635.60184	25.72
635.61936	25.32
635.63688	-6.48
635.6544	5.92
635.67192	-4.08
635.68943	0.52
635.70694	-7.08
635.72445	1.52
635.74196	-15.28
635.75946	-15.48
635.77697	-3.08
635.79447	0.52
635.81196	12.32
635.82946	-3.28
635.84695	-20.08
635.86444	0.32
635.88193	8.32
635.89941	12.92
635.91689	0.52
635.93437	-4.28
635.95185	-6.28
635.96933	-11.48
635.9868	13.12
636.00427	41.32
636.02174	7.72
636.0392	-9.28
636.05666	16.72
636.07412	5.32
636.09158	-1.28
636.10904	-10.68
636.12649	-0.28
636.14394	-5.48
636.16139	16.92
636.17883	6.12
636.19628	-4.28
636.21372	-13.88
636.23116	-4.28
636.24859	-9.48
636.26602	-6.28
636.28345	0.12
636.30088	4.32
636.31831	-0.48
636.33573	-9.88
636.35315	-0.68
636.37057	8.52
636.38799	-4.28
636.4054	7.52
636.42281	17.72
636.44022	8.52
636.45763	-7.68
636.47503	-10.88
636.49243	-16.28
636.50983	-15.68
636.52723	-12.48
636.54462	-5.08
636.56201	-8.28
636.5794	-23.08
636.59679	-14.28
636.61417	0.72
636.63155	-3.48
636.64893	20.32
636.66631	16.52
636.68368	-8.08
636.70106	-13.48
636.71843	-18.08
636.73579	-4.08
636.75316	-0.68
636.77052	-3.88
636.78788	5.52
636.80524	3.92
636.82259	-12.28
636.83994	-11.48
636.85729	-14.88
636.87464	-16.88
636.89198	-10.48
636.90933	12.92
636.92667	1.52
636.944	-6.08
636.96134	-19.08
636.97867	-15.28
636.996	-4.48
637.01333	5.12
637.03066	-1.68
637.04798	-17.88
637.0653	-1.28
637.08262	-0.08
637.09993	-5.08
637.11724	-11.48
637.13455	1.32
637.15186	18.12
637.16917	7.32
637.18647	0.32
637.20377	15.92
637.22107	6.12
637.23837	6.32
637.25566	32.32
637.27295	5.12
637.29024	11.52
637.30752	-7.88
637.32481	1.52
637.34209	11.12
637.35937	27.52
637.37664	13.12
637.39392	13.12
637.41119	3.32
637.42846	11.12
637.44572	-5.08
637.46299	6.12
637.48025	35.72
637.49751	8.52
637.51476	-1.28
637.53202	14.52
637.54927	0.12
637.56652	7.32
637.58376	5.92
637.60101	3.12
637.61825	20.52
637.63549	27.12
637.65273	18.32
637.66996	20.72
637.68719	26.12
637.70442	36.12
637.72165	54.92
637.73887	82.72
637.7561	153.92
637.77332	433.92
637.79053	1552.32
637.80775	3408.92
637.82496	3634.92
637.84217	1760.12
637.85938	452.52
637.87658	144.72
637.89378	62.92
637.91098	28.32
637.92818	19.32
637.94538	31.32
637.96257	34.32
637.97976	19.92
637.99695	13.72
638.01413	-4.88
638.03132	-3.28
638.0485	-0.28
638.06567	-16.08
638.08285	1.12
638.10002	3.32
638.11719	2.92
638.13436	-1.68
638.15153	4.92
638.16869	-15.08
638.18585	-10.28
638.20301	-15.28
638.22016	-19.08
638.23732	-25.88
638.25447	-13.68
638.27162	-9.48
638.28876	-9.88
638.30591	-12.08
638.32305	1.52
638.34019	13.52
638.35732	16.12
638.37446	21.12
638.39159	-6.28
638.40872	-16.68
638.42584	3.12
638.44297	1.12
638.46009	-5.28
638.47721	8.12
638.49432	15.92
638.51144	8.52
638.52855	8.52
638.54566	-11.68
638.56276	6.72
638.57987	10.52
638.59697	5.72
638.61407	-3.48
638.63117	-1.48
638.64826	4.92
638.66535	8.32
638.68244	2.72
638.69953	4.12
638.71661	9.52
638.7337	0.52
638.75078	6.12
638.76785	4.12
638.78493	2.52
638.802	-15.88
638.81907	2.12
638.83614	6.52
638.8532	19.52
638.87026	-2.68
638.88732	-19.88
638.90438	-6.68
638.92144	10.72
638.93849	13.12
638.95554	13.32
638.97259	1.52
638.98963	12.12
639.00668	12.92
639.02372	9.52
639.04075	19.72
639.05779	15.92
639.07482	14.32
639.09185	21.52
639.10888	-13.08
639.12591	-17.88
639.14293	-8.68
639.15995	-5.08
639.17697	24.32
639.19398	33.72
639.211	38.32
639.22801	26.12
639.24502	4.72
639.26202	15.52
639.27903	8.92
639.29603	25.32
639.31303	31.32
639.33002	3.52
639.34702	14.12
639.36401	10.12
639.381	9.52
639.39798	17.52
639.41497	24.92
639.43195	25.32
639.44893	6.12
639.4659	24.72
639.48288	37.72
639.49985	39.12
639.51682	28.32
639.53379	16.52
639.55075	15.72
639.56771	5.92
639.58467	29.92
639.60163	65.92
639.61858	78.92
639.63553	105.92
639.65248	133.52
639.66943	172.12
639.68638	346.52
639.70332	1302.12
639.72026	4774.32
639.73719	9698.32
639.75413	9674.72
639.77106	4647.72
639.78799	1505.12
639.80492	581.72
639.82184	267.92
639.83877	138.12
639.85569	99.32
639.8726	73.72
639.88952	64.72
639.90643	34.52
639.92334	35.52
639.94025	28.72
639.95716	27.72
639.97406	23.32
639.99096	35.32
640.00786	21.72
640.02475	17.52
640.04165	18.72
640.05854	19.32
640.07542	15.12
640.09231	24.12
640.10919	20.32
640.12607	24.52
640.14295	-3.88
640.15983	-0.68
640.1767	5.52
640.19357	-5.68
640.21044	-1.08
640.22731	8.92
640.24417	12.72
640.26103	15.52
640.27789	19.92
640.29475	4.32
640.3116	-17.48
640.32845	-10.88
640.3453	8.52
640.36215	-0.28
640.37899	4.32
640.39583	26.52
640.41267	36.72
640.42951	3.32
640.44634	-20.28
640.46317	-2.08
640.48	-8.48
640.49683	-13.48
640.51365	-6.88
640.53048	-3.48
640.5473	4.32
640.56411	-5.28
640.58093	10.12
640.59774	23.32
640.61455	-4.28
640.63136	-2.68
640.64816	-10.88
640.66496	-9.08
640.68176	14.32
640.69856	-15.08
640.71535	-6.28
640.73215	-7.68
640.74894	-3.88
640.76572	14.32
640.78251	19.12
640.79929	6.92
640.81607	7.92
640.83285	5.12
640.84963	15.72
640.8664	20.12
640.88317	34.92
640.89994	5.12
640.9167	-6.28
640.93346	-17.08
640.95022	-10.08
640.96698	-7.48
640.98374	-14.68
641.00049	-20.28
641.01724	-17.08
641.03399	-20.88
641.05074	-16.28
641.06748	-12.08
641.08422	2.12
641.10096	-13.28
641.11769	9.72
641.13443	2.32
641.15116	-7.88
641.16789	-9.88
641.18461	-11.48
641.20134	14.32
641.21806	10.32
641.23478	-5.28
641.25149	-1.48
641.26821	13.92
641.28492	-5.88
641.30163	-3.48
641.31833	-11.68
641.33504	-10.48
641.35174	-4.28
641.36844	-1.48
641.38514	4.52
641.40183	2.12
641.41852	2.52
641.43521	4.92
641.4519	27.72
641.46858	13.12
641.48526	-5.68
641.50194	-4.28
641.51862	-3.28
641.53529	-2.48
641.55197	15.72
641.56864	17.52
641.5853	-0.88
641.60197	-2.88
641.61863	9.32
641.63529	-9.08
641.65195	-12.68
641.6686	7.12
641.68526	9.52
641.70191	12.12
641.71855	19.52
641.7352	18.12
641.75184	-0.08
641.76848	-6.68
641.78512	-8.68
641.80175	-6.68
641.81839	13.92
641.83502	13.92
641.85164	8.32
641.86827	15.12
641.88489	-1.48
641.90151	-10.68
641.91813	-3.68
641.93475	6.32
641.95136	-3.88
641.96797	-10.88
641.98458	-20.08
642.00119	-2.48
642.01779	1.52
642.03439	2.72
642.05099	-4.08
642.06758	-17.88
642.08418	-6.48
642.10077	0.72
642.11736	7.52
642.13394	-0.68
642.15053	1.12
642.16711	-10.68
642.18369	-20.08
642.20026	1.32
642.21684	18.72
642.23341	24.52
642.24998	12.12
642.26654	20.72
642.28311	11.12
642.29967	-5.68
642.31623	-20.68
642.33279	-4.28
642.34934	-4.48
642.36589	-21.88
642.38244	-28.68
642.39899	63.32
642.41553	185.72
642.43207	18.72
642.44861	-26.28
642.46515	-7.88
642.48169	8.52
642.49822	5.92
642.51475	0.72
642.53127	-5.68
642.5478	-7.48
642.56432	9.52
642.58084	6.72
642.59736	3.72
642.61387	11.72
642.63039	20.52
642.6469	10.12
642.6634	23.92
642.67991	-2.08
642.69641	-1.28
642.71291	-10.48
642.72941	4.32
642.74591	22.12
642.7624	5.52
642.77889	-0.68
642.79538	-16.68
642.81186	-19.88
642.82834	-20.88
642.84483	-19.48
642.8613	-10.48
642.87778	-16.48
642.89425	8.12
642.91072	39.52
642.92719	-5.48
642.94366	-4.88
642.96012	10.92
642.97658	-2.48
642.99304	6.32
643.0095	3.52
643.02595	-7.88
643.0424	-8.08
643.05885	3.32
643.0753	-4.68
643.09174	-16.88
643.10818	-8.88
643.12462	-9.88
643.14106	-7.28
643.15749	-8.28
643.17392	4.72
643.19035	35.32
643.20678	25.12
643.2232	-4.48
643.23962	11.12
643.25604	0.52
643.27246	-7.88
643.28887	-2.68
643.30528	1.72
643.32169	12.92
643.3381	-2.48
643.35451	1.32
643.37091	10.12
643.38731	6.12
643.4037	-11.88
643.4201	-8.28
643.43649	6.92
643.45288	25.32
643.46927	9.32
643.48565	1.12
643.50204	10.12
643.51842	5.52
643.53479	-11.88
643.55117	9.52
643.56754	1.72
643.58391	5.52
643.60028	-3.68
643.61664	5.92
643.63301	5.92
643.64937	10.52
643.66572	6.12
643.68208	-1.08
643.69843	-3.88
643.71478	-11.08
643.73113	-1.28
643.74748	-10.88
643.76382	-7.88
643.78016	-5.88
643.7965	3.72
643.81283	8.52
643.82917	13.92
643.8455	-6.48
643.86183	16.52
643.87815	22.52
643.89448	12.72
643.9108	12.12
643.92712	10.92
643.94343	8.72
643.95974	-17.68
643.97606	-17.88
643.99236	6.92
644.00867	21.52
644.02497	4.12
644.04128	-0.48
644.05758	8.92
644.07387	6.12
644.09017	-2.28
644.10646	6.72
644.12275	8.32
644.13903	0.92
644.15532	-6.68
644.1716	-5.68
644.18788	23.72
644.20415	5.12
644.22043	2.32
644.2367	6.32
644.25297	-0.48
644.26924	10.72
644.2855	10.92
644.30176	6.92
644.31802	-4.08
644.33428	10.12
644.35054	19.72
644.36679	-4.68
644.38304	3.12
644.39928	9.12
644.41553	11.12
644.43177	-6.08
644.44801	-14.48
644.46425	-15.88
644.48048	-3.88
644.49672	-5.68
644.51295	-1.08
644.52917	8.52
644.5454	10.72
644.56162	-6.68
644.57784	-1.88
644.59406	-1.28
644.61028	-1.48
644.62649	-1.48
644.6427	2.12
644.65891	-4.48
644.67511	-25.88
644.69132	-7.28
644.70752	-4.48
644.72372	2.12
644.73991	-2.88
644.7561	1.72
644.7723	12.32
644.78848	29.92
644.80467	17.32
644.82085	-3.88
644.83703	6.12
644.85321	9.72
644.86939	8.92
644.88556	11.32
644.90173	15.52
644.9179	22.12
644.93407	11.72
644.95023	19.72
644.96639	1.72
644.98255	6.72
644.99871	-9.88
645.01486	-11.88
645.03102	8.12
645.04716	11.32
645.06331	6.12
645.07946	46.32
645.0956	111.52
645.11174	23.92
645.12787	22.72
645.14401	7.12
645.16014	4.72
645.17627	6.72
645.1924	6.92
645.20852	21.52
645.22464	7.52
645.24076	22.72
645.25688	37.12
645.27299	18.72
645.28911	16.72
645.30522	-2.08
645.32132	4.12
645.33743	15.52
645.35353	11.72
645.36963	0.92
645.38573	5.12
645.40182	3.32
645.41792	-7.48
645.43401	-3.48
645.45009	11.32
645.46618	13.12
645.48226	-2.08
645.49834	8.72
645.51442	-6.68
645.5305	-4.88
645.54657	0.52
645.56264	10.92
645.57871	-3.08
645.59477	8.52
645.61084	1.12
645.6269	16.12
645.64296	15.92
645.65901	11.52
645.67507	13.92
645.69112	5.52
645.70716	-3.48
645.72321	-8.88
645.73925	1.32
645.7553	2.52
645.77133	-10.88
645.78737	-0.08
645.8034	14.52
645.81944	27.92
645.83546	-1.48
645.85149	33.32
645.86751	12.92
645.88354	-7.08
645.89955	0.72
645.91557	4.72
645.93159	-13.28
645.9476	-5.08
645.96361	2.92
645.97961	6.72
645.99562	12.12
646.01162	15.12
646.02762	3.92
646.04361	-7.48
646.05961	-12.88
646.0756	-10.48
646.09159	6.72
646.10758	-10.08
646.12356	9.32
646.13954	12.52
646.15552	4.12
646.1715	21.12
646.18748	12.32
646.20345	3.72
646.21942	-4.28
646.23539	30.12
646.25135	27.92
646.26731	-1.08
646.28327	9.92
646.29923	6.12
646.31519	29.52
646.33114	31.12
646.34709	15.92
646.36304	0.92
646.37898	-3.88
646.39493	-15.28
646.41087	1.52
646.4268	-3.88
646.44274	-13.48
646.45867	-1.88
646.4746	11.92
646.49053	4.52
646.50646	-9.48
646.52238	-25.08
646.5383	-13.68
646.55422	-7.28
646.57014	1.52
646.58605	0.92
646.60196	6.12
646.61787	0.12
646.63377	5.12
646.64968	12.52
646.66558	-7.68
646.68148	-15.28
646.69737	2.52
646.71327	-3.08
646.72916	-10.88
646.74505	-2.08
646.76093	18.52
646.77682	13.92
646.7927	2.72
646.80858	0.92
646.82446	-19.88
646.84033	-5.48
646.8562	-6.48
646.87207	0.92
646.88794	8.92
646.9038	-9.48
646.91966	6.52
646.93552	-0.28
646.95138	-8.08
646.96723	7.32
646.98309	15.52
646.99894	3.72
647.01478	5.32
647.03063	19.32
647.04647	0.12
647.06231	-6.68
647.07815	-11.08
647.09398	-11.28
647.10981	-5.88
647.12564	-10.88
647.14147	4.32
647.1573	19.92
647.17312	5.72
647.18894	-3.88
647.20476	-21.08
647.22057	-21.28
647.23638	-6.48
647.25219	-7.08
647.268	-11.28
647.28381	-8.08
647.29961	11.52
647.31541	3.72
647.33121	-0.28
647.34701	10.72
647.3628	7.92
647.37859	5.92
647.39438	4.32
647.41016	0.72
647.42595	4.52
647.44173	0.12
647.45751	-5.08
647.47328	3.52
647.48905	2.72
647.50483	9.72
647.52059	6.32
647.53636	-2.48
647.55212	-11.08
647.56789	10.92
647.58364	62.72
647.5994	7.52
647.61515	-2.88
647.63091	0.92
647.64665	-0.88
647.6624	1.12
647.67814	-13.08
647.69389	-21.28
647.70963	-11.68
647.72536	-30.48
647.7411	-21.68
647.75683	-8.88
647.77256	-8.68
647.78828	-0.08
647.80401	2.12
647.81973	6.12
647.83545	7.52
647.85117	5.12
647.86688	1.52
647.88259	-9.08
647.8983	6.52
647.91401	18.32
647.92971	14.52
647.94542	-7.88
647.96112	-0.68
647.97681	4.52
647.99251	-4.68
648.0082	4.52
648.02389	9.92
648.03958	-9.48
648.05526	-5.68
648.07095	-5.28
648.08663	-6.28
648.1023	-16.28
648.11798	-16.08
648.13365	-12.68
648.14932	-6.08
648.16499	2.52
648.18066	-5.88
648.19632	-11.48
648.21198	-6.48
648.22764	-2.28
648.24329	0.72
648.25895	7.92
648.2746	-6.88
648.29025	3.92
648.30589	3.52
648.32153	-0.28
648.33718	-2.28
648.35281	16.92
648.36845	39.92
648.38408	84.12
648.39971	6.92
648.41534	-13.08
648.43097	0.52
648.44659	3.32
648.46221	11.52
648.47783	6.72
648.49345	-15.08
648.50906	8.32
648.52467	6.52
648.54028	-19.68
648.55589	-11.28
648.57149	14.12
648.5871	5.52
648.6027	-1.28
648.61829	6.72
648.63389	5.72
648.64948	10.12
648.66507	7.32
648.68065	-14.08
648.69624	4.12
648.71182	28.72
648.7274	32.52
648.74298	31.92
648.75855	33.72
648.77412	27.72
648.78969	1.52
648.80526	-25.28
648.82083	-11.28
648.83639	4.52
648.85195	-8.28
648.8675	-6.28
648.88306	-1.48
648.89861	-9.28
648.91416	-12.48
648.92971	-1.28
648.94526	16.72
648.9608	24.52
648.97634	9.92
648.99188	5.32
649.00741	1.12
649.02294	0.12
649.03847	0.52
649.054	-13.48
649.06953	7.72
649.08505	-5.48
649.10057	0.52
649.11609	-13.68
649.13161	1.52
649.14712	-2.48
649.16263	-8.88
649.17814	-10.28
649.19364	0.72
649.20915	28.32
649.22465	27.12
649.24015	20.92
649.25564	33.72
649.27114	16.92
649.28663	4.72
649.30212	-1.28
649.3176	1.72
649.33309	-8.88
649.34857	-1.08
649.36405	7.72
649.37952	13.12
649.395	9.52
649.41047	24.72
649.42594	11.52
649.4414	1.52
649.45687	7.72
649.47233	-5.68
649.48779	-1.48
649.50324	16.32
649.5187	19.12
649.53415	18.92
649.5496	11.32
649.56505	11.12
649.58049	10.52
649.59593	2.52
649.61137	-4.88
649.62681	3.32
649.64224	-0.08
649.65768	-5.48
649.67311	13.92
649.68853	25.72
649.70396	15.92
649.71938	17.92
649.7348	11.12
649.75022	22.72
649.76563	-0.08
649.78105	13.32
649.79646	0.92
649.81186	10.72
649.82727	24.52
649.84267	9.52
649.85807	16.32
649.87347	-2.28
649.88886	0.12
649.90426	6.92
649.91965	6.92
649.93504	-4.08
649.95042	13.52
649.9658	2.32
649.98119	16.12
649.99656	16.72
650.01194	3.52
650.02731	10.92
650.04268	13.12
650.05805	14.52
650.07342	32.12
650.08878	58.92
650.10414	99.72
650.1195	271.52
650.13486	1161.72
650.15021	3141.12
650.16556	4748.52
650.18091	4313.12
650.19626	3025.32
650.2116	2211.72
650.22694	1373.52
650.24228	800.72
650.25762	415.12
650.27295	199.92
650.28828	102.92
650.30361	68.12
650.31894	34.32
650.33426	22.72
650.34958	26.32
650.3649	60.12
650.38022	28.92
650.39553	-1.08
650.41085	4.72
650.42616	2.12
650.44146	11.32
650.45677	14.52
650.47207	14.72
650.48737	19.12
650.50267	-3.08
650.51796	-13.28
650.53325	2.32
650.54854	16.92
650.56383	14.92
650.57911	10.52
650.5944	1.32
650.60968	9.32
650.62495	9.52
650.64023	9.52
650.6555	-11.48
650.67077	-14.48
650.68604	4.32
650.70131	9.52
650.71657	7.12
650.73183	13.12
650.74709	8.12
650.76234	5.72
650.77759	11.92
650.79285	11.72
650.80809	11.32
650.82334	-0.48
650.83858	-8.48
650.85382	1.12
650.86906	10.72
650.8843	23.12
650.89953	1.92
650.91476	-5.28
650.92999	-8.08
650.94522	0.12
650.96044	10.52
650.97566	1.92
650.99088	-7.48
651.00609	-7.08
651.02131	-12.08
651.03652	-1.28
651.05173	6.32
651.06693	-22.88
651.08214	-12.88
651.09734	-12.68
651.11254	-11.08
651.12773	-14.68
651.14293	7.72
651.15812	-9.08
651.17331	-0.68
651.1885	14.52
651.20368	-16.28
651.21886	-14.88
651.23404	9.72
651.24922	10.52
651.26439	6.32
651.27956	-1.48
651.29473	-10.68
651.3099	16.32
651.32507	-16.88
651.34023	-8.48
651.35539	-3.68
651.37054	-20.68
651.3857	-36.48
651.40085	-8.08
651.416	0.92
651.43115	-10.48
651.44629	-16.88
651.46144	-24.28
651.47658	-2.48
651.49171	21.72
651.50685	11.32
651.52198	3.32
651.53711	-9.68
651.55224	-11.68
651.56736	0.52
651.58249	9.52
651.59761	6.52
651.61273	-23.08
651.62784	-5.28
651.64295	-4.68
651.65806	-12.88
651.67317	-7.88
651.68828	-5.68
651.70338	7.52
651.71848	13.32
651.73358	27.52
651.74868	-5.88
651.76377	-4.48
651.77886	-0.88
651.79395	1.72
651.80904	-8.68
651.82412	9.52
651.8392	0.92
651.85428	5.32
651.86935	7.72
651.88443	10.12
651.8995	-3.88
651.91457	-13.48
651.92963	-0.28
651.9447	21.92
651.95976	15.92
651.97482	0.72
651.98988	-1.08
652.00493	-14.68
652.01998	-4.08
652.03503	22.12
652.05008	34.32
652.06512	92.72
652.08016	3.32
652.0952	-2.28
652.11024	27.32
652.12527	3.92
652.14031	-5.08
652.15534	0.32
652.17036	13.32
652.18539	-3.48
652.20041	9.32
652.21543	7.12
652.23045	-13.28
652.24546	-6.88
652.26047	10.12
652.27548	4.92
652.29049	8.32
652.3055	-4.48
652.3205	11.52
652.3355	6.32
652.3505	-7.48
652.36549	-5.08
652.38048	6.52
652.39547	9.32
652.41046	10.92
652.42545	20.32
652.44043	21.32
652.45541	-0.88
652.47039	13.72
652.48536	3.12
652.50034	-13.48
652.51531	-19.08
652.53028	-2.48
652.54524	-2.08
652.5602	-6.28
652.57517	-18.28
652.59012	31.92
652.60508	87.12
652.62003	4.12
652.63498	-10.68
652.64993	-9.08
652.66488	-10.08
652.67982	4.12
652.69476	12.52
652.7097	-1.88
652.72464	1.12
652.73957	35.52
652.7545	115.92
652.76943	468.92
652.78436	1188.12
652.79928	1786.32
652.8142	1656.92
652.82912	1140.32
652.84404	836.92
652.85895	563.32
652.87387	382.72
652.88877	242.12
652.90368	142.32
652.91859	47.52
652.93349	26.52
652.94839	17.72
652.96328	16.32
652.97818	3.12
652.99307	2.92
653.00796	1.32
653.02285	-5.48
653.03773	6.92
653.05261	-0.08
653.06749	-11.88
653.08237	-7.08
653.09725	-0.28
653.11212	-1.08
653.12699	-6.28
653.14186	12.32
653.15672	30.52
653.17158	5.12
653.18644	15.72
653.2013	-0.68
653.21616	7.32
653.23101	11.12
653.24586	-4.68
653.26071	-17.08
653.27555	5.72
653.29039	16.72
653.30524	-6.08
653.32007	-0.48
653.33491	168.72
653.34974	419.12
653.36457	32.72
653.3794	-8.68
653.39423	-16.88
653.40905	-14.08
653.42387	-8.08
653.43869	-6.28
653.45351	-12.48
653.46832	-12.28
653.48313	-14.08
653.49794	-7.28
653.51274	6.32
653.52755	7.52
653.54235	-4.08
653.55715	-15.08
653.57194	-6.88
653.58674	9.12
653.60153	5.12
653.61632	-1.08
653.6311	-19.28
653.64589	-16.08
653.66067	7.32
653.67545	-1.48
653.69023	-16.48
653.705	-16.28
653.71977	-12.88
653.73454	-13.68
653.74931	-11.28
653.76407	4.92
653.77883	3.12
653.79359	8.32
653.80835	-0.88
653.8231	-3.08
653.83786	11.52
653.85261	23.72
653.86735	10.32
653.8821	45.12
653.89684	7.72
653.91158	-4.48
653.92632	14.52
653.94105	11.12
653.95579	3.52
653.97052	-18.08
653.98524	-10.68
653.99997	2.52
654.01469	0.72
654.02941	0.52
654.04413	9.52
654.05884	-1.48
654.07356	8.52
654.08827	56.72
654.10297	128.52
654.11768	25.12
654.13238	27.72
654.14708	10.32
654.16178	-5.28
654.17648	-3.88
654.19117	-15.48
654.20586	-16.48
654.22055	-3.08
654.23524	3.52
654.24992	42.32
654.2646	77.92
654.27928	35.12
654.29395	18.92
654.30863	20.32
654.3233	24.52
654.33797	7.52
654.35263	11.52
654.3673	7.52
654.38196	10.12
654.39662	-10.68
654.41127	-0.48
654.42593	13.72
654.44058	12.52
654.45523	-1.48
654.46987	-10.68
654.48452	2.52
654.49916	6.12
654.5138	6.52
654.52844	1.12
654.54307	8.32
654.5577	28.12
654.57233	11.12
654.58696	7.52
654.60158	2.32
654.6162	-1.28
654.63082	-7.88
654.64544	1.72
654.66005	-10.08
654.67467	-5.08
654.68928	11.12
654.70388	8.52
654.71849	6.92
654.73309	52.52
654.74769	120.32
654.76229	4.12
654.77688	13.12
654.79148	3.52
654.80607	-9.68
654.82065	16.32
654.83524	7.92
654.84982	1.52
654.8644	-3.88
654.87898	-11.08
654.89355	-2.28
654.90813	-2.48
654.9227	-4.88
654.93727	-6.88
654.95183	-9.68
654.96639	-4.48
654.98095	5.52
654.99551	-1.28
655.01007	6.72
655.02462	-12.88
655.03917	-9.68
655.05372	-6.48
655.06827	-5.08
655.08281	5.12
655.09735	-0.68
655.11189	-1.48
655.12643	-13.88
655.14096	-6.08
655.15549	7.52
655.17002	-10.28
655.18454	-8.48
655.19907	-5.88
655.21359	11.92
655.22811	23.92
655.24262	5.92
655.25714	5.32
655.27165	6.52
655.28616	-16.08
655.30067	-17.08
655.31517	-4.68
655.32967	-7.08
655.34417	-1.48
655.35867	-2.68
655.37316	-8.48
655.38765	-13.68
655.40214	4.12
655.41663	6.72
655.43111	4.72
655.4456	9.32
655.46008	-22.88
655.47455	-16.48
655.48903	-7.68
655.5035	-3.68
655.51797	-9.48
655.53244	-0.88
655.5469	8.32
655.56136	24.12
655.57582	1.52
655.59028	-1.88
655.60474	-18.28
655.61919	-6.68
655.63364	18.32
655.64809	22.92
655.66253	-2.48
655.67697	-7.68
655.69141	8.52
655.70585	2.52
655.72029	-9.88
655.73472	-7.88
655.74915	-11.88
655.76358	-9.08
655.778	-1.08
655.79243	30.12
655.80685	14.12
655.82127	-0.28
655.83568	3.92
655.8501	31.52
655.86451	18.72
655.87891	17.92
655.89332	8.52
655.90772	-4.88
655.92212	-12.88
655.93652	18.92
655.95092	5.72
655.96531	-3.48
655.9797	-9.68
655.99409	2.92
656.00848	-4.08
656.02286	10.92
656.03724	13.12
656.05162	-8.48
656.066	-16.08
656.08037	-5.68
656.09475	-0.88
656.10911	-9.88
656.12348	-2.68
656.13784	9.32
656.15221	1.92
656.16657	25.32
656.18092	10.32
656.19528	16.72
656.20963	3.32
656.22398	-0.48
656.23833	10.12
656.25267	12.92
656.26701	22.72
656.28135	-10.48
656.29569	-0.88
656.31002	16.92
656.32436	25.92
656.33869	23.92
656.35301	-1.88
656.36734	1.32
656.38166	-11.08
656.39598	-12.68
656.4103	-15.88
656.42461	-9.88
656.43892	-11.48
656.45323	-15.48
656.46754	-6.08
656.48185	-4.08
656.49615	-4.48
656.51045	-2.28
656.52475	-3.48
656.53904	-4.88
656.55334	-9.88
656.56763	-7.88
656.58192	0.52
656.5962	-2.88
656.61048	-9.48
656.62476	-2.48
656.63904	-8.08
656.65332	-5.28
656.66759	-6.08
656.68186	-8.08
656.69613	-7.48
656.7104	-6.28
656.72466	15.52
656.73892	9.52
656.75318	14.52
656.76744	-7.08
656.78169	7.32
656.79594	28.52
656.81019	44.12
656.82444	-9.88
656.83868	-0.88
656.85292	-4.88
656.86716	-4.28
656.8814	8.92
656.89563	1.32
656.90986	-7.68
656.92409	-5.68
656.93832	5.32
656.95254	5.72
656.96676	8.72
656.98098	16.52
656.9952	-1.08
657.00941	7.12
657.02363	-10.48
657.03784	-14.88
657.05204	-8.08
657.06625	24.52
657.08045	2.72
657.09465	6.52
657.10885	-17.28
657.12304	-3.68
657.13723	-10.28
657.15142	-8.48
657.16561	-12.48
657.1798	-11.08
657.19398	-32.28
657.20816	-11.08
657.22234	-16.28
657.23651	-16.08
657.25068	-4.08
657.26485	-5.08
657.27902	-7.08
657.29319	-21.68
657.30735	0.52
657.32151	-4.88
657.33567	6.92
657.34982	34.12
657.36398	11.52
657.37813	10.92
657.39227	-7.48
657.40642	12.52
657.42056	13.92
657.4347	1.12
657.44884	7.12
657.46298	-3.48
657.47711	12.92
657.49124	23.32
657.50537	-5.08
657.5195	-7.28
657.53362	-15.68
657.54774	-7.68
657.56186	19.12
657.57598	34.92
657.59009	2.32
657.6042	3.12
657.61831	2.12
657.63242	-2.28
657.64652	3.52
657.66062	7.12
657.67472	9.32
657.68882	6.12
657.70291	-3.88
657.717	-2.68
657.73109	-4.68
657.74518	5.72
657.75926	-5.88
657.77335	-18.88
657.78742	-12.88
657.8015	-10.08
657.81558	-4.48
657.82965	4.12
657.84372	-7.68
657.85778	3.52
657.87185	-4.48
657.88591	-3.88
657.89997	-8.88
657.91403	9.12
657.92808	14.92
657.94214	6.32
657.95618	5.32
657.97023	-3.68
657.98428	5.92
657.99832	44.72
658.01236	8.12
658.0264	-22.28
658.04043	-9.08
658.05447	-4.88
658.0685	-22.08
658.08252	-18.08
658.09655	-1.68
658.11057	12.72
658.12459	21.32
658.13861	26.52
658.15263	5.32
658.16664	18.52
658.18065	3.12
658.19466	-7.48
658.20866	-10.08
658.22267	-10.28
658.23667	4.52
658.25067	1.52
658.26466	-0.48
658.27865	0.92
658.29265	-8.08
658.30663	4.52
658.32062	0.52
658.3346	-8.48
658.34858	2.12
658.36256	3.12
658.37654	-1.48
658.39051	12.52
658.40448	12.72
658.41845	2.92
658.43242	-0.68
658.44638	-10.28
658.46035	-12.48
658.4743	1.52
658.48826	7.52
658.50221	15.12
658.51617	-0.08
658.53012	-15.28
658.54406	-9.48
658.55801	0.32
658.57195	-3.88
658.58589	19.12
658.59983	14.92
658.61376	-10.28
658.62769	-7.88
658.64162	9.92
658.65555	9.92
658.66947	-8.28
658.6834	26.92
658.69731	103.12
658.71123	12.92
658.72515	10.32
658.73906	4.92
658.75297	4.72
658.76688	-2.08
658.78078	9.32
658.79468	-3.28
658.80858	-20.68
658.82248	-10.88
658.83638	-1.88
658.85027	7.32
658.86416	3.52
658.87805	4.72
658.89193	-12.28
658.90582	-8.48
658.9197	2.52
658.93357	-2.08
658.94745	-6.48
658.96132	-14.28
658.97519	7.32
658.98906	-17.68
659.00293	-18.48
659.01679	-10.68
659.03065	-6.08
659.04451	4.72
659.05837	-0.28
659.07222	-0.88
659.08607	1.52
659.09992	19.12
659.11377	14.32
659.12761	0.72
659.14145	-2.08
659.15529	4.52
659.16913	6.72
659.18296	7.12
659.19679	-6.48
659.21062	2.52
659.22445	5.72
659.23827	44.92
659.25209	26.32
659.26591	9.92
659.27973	23.12
659.29354	9.32
659.30735	-7.28
659.32116	9.72
659.33497	7.12
659.34877	16.32
659.36258	128.32
659.37637	471.52
659.39017	1101.92
659.40397	1647.32
659.41776	1622.52
659.43155	1126.32
659.44533	767.32
659.45912	615.92
659.4729	439.52
659.48668	339.72
659.50046	226.92
659.51423	142.12
659.52801	99.92
659.54178	74.32
659.55554	25.12
659.56931	22.32
659.58307	13.92
659.59683	16.32
659.61059	15.32
659.62434	56.32
659.6381	100.52
659.65185	1.72
659.6656	-20.08
659.67934	-8.68
659.69308	2.32
659.70682	0.52
659.72056	7.32
659.7343	8.52
659.74803	-0.48
659.76176	-5.08
659.77549	-2.48
659.78922	17.92
659.80294	-19.48
659.81666	-20.28
659.83038	0.72
659.84409	3.72
659.85781	-2.68
659.87152	-4.88
659.88523	-0.28
659.89893	-5.48
659.91264	9.72
659.92634	22.32
659.94004	11.92
659.95373	8.92
659.96743	4.72
659.98112	9.52
659.99481	4.12
660.00849	-2.28
660.02218	11.12
660.03586	11.32
660.04954	-15.88
660.06322	-2.48
660.07689	22.52
660.09056	26.72
660.10423	-12.08
660.1179	2.52
660.13156	19.92
660.14522	0.72
660.15888	-7.48
660.17254	-4.88
660.1862	5.92
660.19985	-0.08
660.2135	-14.88
660.22714	-3.08
660.24079	-5.48
660.25443	-6.48
660.26807	4.72
660.28171	8.12
660.29534	6.12
660.30898	-0.88
660.32261	-8.48
660.33623	-23.88
660.34986	-21.88
660.36348	1.32
660.3771	-1.48
660.39072	28.52
660.40433	24.72
660.41795	18.92
660.43156	1.72
660.44517	-1.28
660.45877	3.52
660.47237	-7.28
660.48598	-5.48
660.49957	-6.48
660.51317	-1.88
660.52676	-3.28
660.54035	17.92
660.55394	21.92
660.56753	6.52
660.58111	8.92
660.59469	20.72
660.60827	-10.08
660.62185	-1.68
660.63542	12.52
660.64899	8.12
660.66256	18.92
660.67613	12.52
660.68969	13.72
660.70325	14.92
660.71681	-2.48
660.73037	-14.08
660.74392	2.12
660.75747	-4.08
660.77102	-1.08
660.78457	-5.28
660.79811	7.92
660.81165	16.92
660.82519	8.72
660.83873	-7.48
660.85226	7.52
660.86579	19.92
660.87932	8.92
660.89285	-2.68
660.90637	25.72
660.9199	6.12
660.93342	1.32
660.94693	13.52
660.96045	-7.68
660.97396	9.12
660.98747	19.92
661.00098	-4.48
661.01448	-14.28
661.02798	-3.88
661.04148	5.12
661.05498	15.92
661.06848	6.92
661.08197	-3.08
661.09546	12.72
661.10895	41.52
661.12243	8.12
661.13591	4.72
661.14939	-18.88
661.16287	-10.88
661.17635	11.52
661.18982	5.72
661.20329	27.72
661.21676	29.52
661.23022	3.12
661.24369	-2.88
661.25715	8.92
661.27061	-2.68
661.28406	8.32
661.29752	-20.08
661.31097	-9.08
661.32441	1.52
661.33786	-11.08
661.3513	-14.08
661.36474	-6.28
661.37818	4.72
661.39162	0.32
661.40505	65.32
661.41848	174.92
661.43191	13.52
661.44534	-3.88
661.45876	2.52
661.47218	13.12
661.4856	9.72
661.49902	10.72
661.51243	-6.28
661.52585	15.12
661.53925	14.92
661.55266	8.72
661.56606	-0.08
661.57947	6.92
661.59287	-8.88
661.60626	-14.88
661.61966	6.92
661.63305	6.72
661.64644	4.52
661.65983	-3.28
661.67321	5.52
661.68659	-0.68
661.69997	22.72
661.71335	11.92
661.72672	31.92
661.7401	68.52
661.75347	-1.88
661.76683	0.32
661.7802	20.12
661.79356	22.92
661.80692	-11.28
661.82028	0.12
661.83363	-2.28
661.84698	-4.28
661.86033	9.52
661.87368	10.32
661.88703	7.72
661.90037	-3.08
661.91371	1.32
661.92705	-4.48
661.94038	-4.88
661.95372	1.92
661.96705	27.52
661.98038	28.72
661.9937	-2.28
662.00702	-1.48
662.02034	9.52
662.03366	-3.88
662.04698	0.12
662.06029	-5.88
662.0736	-16.68
662.08691	-12.88
662.10022	-3.68
662.11352	0.12
662.12682	3.52
662.14012	-22.08
662.15342	-4.48
662.16671	9.92
662.18	-8.48
662.19329	-5.68
662.20658	-7.08
662.21986	-8.48
662.23314	-2.88
662.24642	-10.28
662.2597	0.92
662.27297	2.12
662.28624	-5.48
662.29951	4.12
662.31278	-12.88
662.32604	-11.08
662.3393	-5.08
662.35256	-6.28
662.36582	-6.88
662.37907	-10.08
662.39233	-7.48
662.40558	2.92
662.41882	7.32
662.43207	11.92
662.44531	-0.08
662.45855	-17.68
662.47179	-14.28
662.48502	-2.28
662.49825	1.12
662.51148	13.12
662.52471	13.92
662.53794	-7.68
662.55116	10.12
662.56438	3.92
662.5776	-4.28
662.59081	8.92
662.60402	14.52
662.61723	0.92
662.63044	10.92
662.64365	8.92
662.65685	-4.88
662.67005	10.92
662.68325	22.32
662.69644	-0.88
662.70964	0.72
662.72283	8.52
662.73601	7.12
662.7492	10.32
662.76238	5.52
662.77556	0.72
662.78874	8.52
662.80192	18.52
662.81509	26.52
662.82826	6.32
662.84143	-11.48
662.8546	-5.48
662.86776	4.92
662.88092	-11.08
662.89408	-10.88
662.90724	3.72
662.92039	28.32
662.93354	-2.08
662.94669	-6.68
662.95984	-2.88
662.97298	-6.28
662.98612	-15.48
662.99926	-11.08
663.0124	7.72
663.02553	5.52
663.03866	7.92
663.05179	-0.28
663.06492	4.32
663.07804	18.52
663.09116	20.12
663.10428	-1.08
663.1174	-6.48
663.13052	-3.88
663.14363	-1.88
663.15674	-15.08
663.16984	-0.48
663.18295	11.32
663.19605	14.52
663.20915	7.92
663.22225	13.52
663.23534	9.32
663.24843	-5.68
663.26152	-9.88
663.27461	-7.48
663.2877	0.72
663.30078	1.52
663.31386	8.32
663.32694	7.72
663.34001	17.72
663.35308	10.32
663.36615	-10.28
663.37922	9.92
663.39229	22.72
663.40535	-15.28
663.41841	-12.88
663.43147	-5.28
663.44452	2.92
663.45758	9.52
663.47063	7.52
663.48368	9.12
663.49672	5.92
663.50977	-12.48
663.52281	-0.88
663.53584	-1.48
663.54888	-19.48
663.56191	-16.48
663.57494	-16.08
663.58797	-15.48
663.601	-6.08
663.61402	-8.48
663.62704	4.52
663.64006	-4.48
663.65308	-2.88
663.66609	-18.08
663.6791	-19.08
663.69211	25.72
663.70512	32.92
663.71812	-2.08
663.73112	-16.28
663.74412	-10.28
663.75712	15.32
663.77011	4.32
663.78311	5.72
663.79609	6.72
663.80908	6.12
663.82207	4.52
663.83505	-20.08
663.84803	-10.08
663.861	-4.48
663.87398	1.32
663.88695	0.52
663.89992	1.92
663.91289	-0.68
663.92585	0.32
663.93881	-7.08
663.95177	8.52
663.96473	31.12
663.97769	2.12
663.99064	-12.08
664.00359	-3.08
664.01654	17.12
664.02948	9.52
664.04242	6.72
664.05536	-0.88
664.0683	2.72
664.08124	3.12
664.09417	7.72
664.1071	7.12
664.12003	9.12
664.13295	-5.88
664.14588	-8.88
664.1588	-7.28
664.17171	-9.28
664.18463	-2.28
664.19754	-7.68
664.21045	9.32
664.22336	-2.08
664.23627	7.72
664.24917	6.92
664.26207	7.32
664.27497	-4.28
664.28787	6.12
664.30076	15.12
664.31365	-0.88
664.32654	0.72
664.33942	-12.48
664.35231	-7.88
664.36519	-5.48
664.37807	-6.28
664.39094	6.92
664.40382	12.72
664.41669	19.72
664.42956	14.52
664.44242	3.52
664.45529	0.92
664.46815	-1.28
664.48101	3.72
664.49387	20.12
664.50672	-11.48
664.51957	-8.68
664.53242	12.32
664.54527	4.92
664.55811	8.92
664.57095	0.12
664.58379	-3.08
664.59663	-12.88
664.60946	-1.08
664.6223	12.72
664.63513	12.32
664.64795	10.12
664.66078	6.32
664.6736	-1.28
664.68642	-6.28
664.69924	-7.28
664.71205	9.12
664.72486	-1.28
664.73767	4.12
664.75048	17.12
664.76329	17.72
664.77609	3.32
664.78889	20.32
664.80169	8.52
664.81448	-7.48
664.82728	-0.68
664.84007	-0.28
664.85285	-10.88
664.86564	4.12
664.87842	-11.28
664.8912	-9.08
664.90398	16.52
664.91676	18.92
664.92953	-4.48
664.9423	10.72
664.95507	12.72
664.96783	7.92
664.9806	15.72
664.99336	-1.28
665.00612	7.12
665.01887	13.32
665.03163	10.92
665.04438	12.32
665.05713	26.12
665.06987	-3.08
665.08262	-18.88
665.09536	-6.08
665.1081	0.72
665.12083	-5.08
665.13357	-5.68
665.1463	16.32
665.15903	10.52
665.17175	21.32
665.18448	-0.48
665.1972	1.92
665.20992	0.52
665.22263	4.12
665.23535	30.92
665.24806	71.92
665.26077	3.32
665.27348	-6.68
665.28618	14.52
665.29888	5.52
665.31158	-8.48
665.32428	21.72
665.33697	11.92
665.34967	1.52
665.36236	0.92
665.37504	5.12
665.38773	5.32
665.40041	17.32
665.41309	7.92
665.42577	7.52
665.43844	-8.28
665.45111	3.52
665.46378	-2.28
665.47645	2.12
665.48912	10.32
665.50178	8.12
665.51444	-6.68
665.5271	7.92
665.53975	0.32
665.55241	-8.28
665.56506	-4.28
665.5777	-8.28
665.59035	5.72
665.60299	16.52
665.61563	18.52
665.62827	14.32
665.64091	2.92
665.65354	-11.08
665.66617	-4.88
665.6788	8.72
665.69142	9.12
665.70405	0.72
665.71667	-8.28
665.72929	-4.08
665.7419	5.12
665.75452	-16.08
665.76713	-6.28
665.77974	-5.88
665.79234	21.32
665.80495	14.72
665.81755	9.32
665.83015	-12.48
665.84274	10.12
665.85534	-7.08
665.86793	-3.08
665.88052	4.52
665.8931	16.52
665.90569	-2.68
665.91827	2.72
665.93085	-10.48
665.94343	14.72
665.956	14.32
665.96857	-16.68
665.98114	-13.08
665.99371	-25.88
666.00627	-23.88
666.01883	-6.48
666.03139	9.52
666.04395	5.32
666.05651	14.72
666.06906	25.72
666.08161	6.12
666.09415	0.32
666.1067	4.32
666.11924	8.52
666.13178	4.92
666.14432	-2.28
666.15685	-13.08
666.16939	-13.08
666.18192	-4.68
666.19444	-1.48
666.20697	12.72
666.21949	17.32
666.23201	14.32
666.24453	-0.68
666.25705	13.32
666.26956	-1.68
666.28207	8.32
666.29458	-0.08
666.30708	-4.48
666.31959	-0.68
666.33209	9.72
666.34458	3.92
666.35708	18.32
666.36957	21.32
666.38206	10.72
666.39455	16.32
666.40704	1.92
666.41952	7.52
666.432	8.12
666.44448	10.72
666.45696	-10.88
666.46943	-4.28
666.4819	-0.08
666.49437	14.32
666.50684	19.72
666.5193	-7.28
666.53176	-20.48
666.54422	-9.08
666.55668	9.92
666.56913	-2.88
666.58158	-0.08
666.59403	19.12
666.60648	16.12
666.61892	12.32
666.63136	15.32
666.6438	8.52
666.65624	1.32
666.66867	8.72
666.68111	3.12
666.69354	12.92
666.70596	14.12
666.71839	-2.08
666.73081	2.92
666.74323	-1.48
666.75565	12.52
666.76806	14.92
666.78047	-4.68
666.79288	-2.48
666.80529	5.92
666.81769	-1.68
666.8301	4.72
666.8425	11.72
666.85489	-5.68
666.86729	-0.88
666.87968	-13.88
666.89207	-9.68
666.90446	4.32
666.91684	11.72
666.92923	-2.08
666.94161	14.32
666.95399	29.92
666.96636	-2.08
666.97873	5.52
666.9911	-16.28
667.00347	7.72
667.01584	13.52
667.0282	15.32
667.04056	-8.88
667.05292	-3.08
667.06528	4.52
667.07763	-10.08
667.08998	7.12
667.10233	14.32
667.11467	-9.88
667.12702	-7.48
667.13936	-0.28
667.1517	19.72
667.16403	6.32
667.17637	7.72
667.1887	-8.88
667.20103	-11.68
667.21335	-11.08
667.22568	2.72
667.238	17.52
667.25032	16.12
667.26263	26.32
667.27495	18.92
667.28726	41.12
667.29957	126.72
667.31188	388.12
667.32418	982.52
667.33648	1759.12
667.34878	2308.52
667.36108	2132.72
667.37337	1435.72
667.38566	982.12
667.39795	761.92
667.41024	562.32
667.42252	448.12
667.43481	339.12
667.44709	229.52
667.45936	158.92
667.47164	112.92
667.48391	74.12
667.49618	35.72
667.50845	15.32
667.52071	23.52
667.53297	18.92
667.54523	19.52
667.55749	11.32
667.56975	7.92
667.582	-6.28
667.59425	4.12
667.6065	23.92
667.61874	2.92
667.63099	21.12
667.64323	28.32
667.65546	1.72
667.6677	5.52
667.67993	7.52
667.69216	11.52
667.70439	-3.88
667.71662	-4.88
667.72884	6.72
667.74106	4.52
667.75328	8.92
667.76549	6.12
667.77771	6.92
667.78992	14.12
667.80213	8.72
667.81433	-10.48
667.82654	8.52
667.83874	12.12
667.85094	-13.88
667.86313	-20.48
667.87533	-16.28
667.88752	-7.48
667.89971	2.32
667.91189	-2.08
667.92408	-15.88
667.93626	-6.68
667.94844	6.32
667.96061	17.92
667.97279	6.72
667.98496	-0.28
667.99713	-13.48
668.0093	0.32
668.02146	18.52
668.03362	10.52
668.04578	0.12
668.05794	-23.48
668.07009	-2.48
668.08224	12.32
668.09439	32.12
668.10654	18.92
668.11868	13.12
668.13083	6.12
668.14297	1.92
668.1551	7.92
668.16724	10.92
668.17937	12.12
668.1915	-4.28
668.20363	-1.08
668.21575	4.92
668.22788	-3.28
668.24	-0.68
668.25211	17.52
668.26423	22.92
668.27634	3.72
668.28845	0.52
668.30056	-8.48
668.31266	-3.28
668.32477	0.52
668.33687	-15.88
668.34897	-13.08
668.36106	2.72
668.37315	10.12
668.38524	4.52
668.39733	-1.28
668.40942	-14.08
668.4215	2.72
668.43358	1.92
668.44566	1.92
668.45774	7.12
668.46981	-3.28
668.48188	-8.48
668.49395	1.32
668.50602	17.92
668.51808	3.12
668.53014	-4.48
668.5422	-5.48
668.55425	-3.68
668.56631	8.12
668.57836	8.52
668.59041	7.32
668.60246	-6.88
668.6145	-18.88
668.62654	-10.48
668.63858	-0.68
668.65062	10.72
668.66265	23.92
668.67468	-5.48
668.68671	-1.08
668.69874	23.32
668.71076	5.12
668.72278	-1.08
668.7348	3.32
668.74682	4.92
668.75883	0.52
668.77085	-17.28
668.78286	-26.88
668.79486	-5.48
668.80687	7.32
668.81887	-2.28
668.83087	4.12
668.84287	-7.28
668.85486	8.92
668.86685	-19.48
668.87884	-15.88
668.89083	8.72
668.90282	14.32
668.9148	-1.88
668.92678	-9.68
668.93876	5.12
668.95073	7.32
668.9627	-0.48
668.97468	-4.08
668.98664	8.52
668.99861	13.12
669.01057	11.52
669.02253	12.32
669.03449	17.92
669.04645	-2.68
669.0584	-2.08
669.07035	-3.88
669.0823	-4.28
669.09424	-12.08
669.10619	-12.48
669.11813	1.32
669.13007	3.52
669.142	2.92
669.15393	17.12
669.16587	4.32
669.17779	-5.28
669.18972	-5.88
669.20164	-17.88
669.21356	2.72
669.22548	12.92
669.2374	4.92
669.24931	-2.88
669.26123	-13.28
669.27313	1.72
669.28504	17.12
669.29694	5.52
669.30885	-2.08
669.32074	3.12
669.33264	14.72
669.34454	-2.48
669.35643	-11.28
669.36832	-10.68
669.3802	-0.48
669.39209	-21.08
669.40397	-9.88
669.41585	-12.28
669.42773	-11.08
669.4396	-17.68
669.45147	-20.08
669.46334	-5.88
669.47521	9.52
669.48707	-7.48
669.49894	-6.08
669.5108	6.72
669.52265	4.92
669.53451	8.12
669.54636	-2.08
669.55821	7.92
669.57006	-2.48
669.5819	-21.68
669.59375	-12.28
669.60559	-5.28
669.61742	-5.88
669.62926	-16.68
669.64109	-17.68
669.65292	3.72
669.66475	10.32
669.67658	-1.28
669.6884	-5.68
669.70022	-1.08
669.71204	17.72
669.72385	0.92
669.73567	-4.88
669.74748	-1.68
669.75928	-3.08
669.77109	3.72
669.78289	1.12
669.79469	-4.08
669.80649	-9.48
669.81829	-14.68
669.83008	7.92
669.84187	3.12
669.85366	-6.88
669.86545	-7.08
669.87723	9.52
669.88901	10.52
669.90079	8.92
669.91257	3.52
669.92434	17.72
669.93611	21.92
669.94788	16.92
669.95965	-3.48
669.97141	-17.08
669.98317	-11.48
669.99493	0.92
670.00669	1.72
670.01844	11.52
670.0302	11.92
670.04194	-1.88
670.05369	8.72
670.06544	-6.88
670.07718	-0.88
670.08892	2.72
670.10065	-1.08
670.11239	-2.28
670.12412	0.92
670.13585	5.92
670.14758	-8.68
670.1593	-13.28
670.17103	10.32
670.18275	29.12
670.19446	-3.68
670.20618	6.92
670.21789	9.92
670.2296	4.52
670.24131	-9.88
670.25301	14.32
670.26472	30.12
670.27642	20.32
670.28811	4.92
670.29981	-0.88
670.3115	-5.08
670.32319	-6.08
670.33488	-16.08
670.34656	-5.68
670.35825	15.52
670.36993	9.12
670.38161	-5.68
670.39328	-8.08
670.40496	0.32
670.41663	-6.88
670.42829	0.92
670.43996	2.72
670.45162	4.12
670.46328	-12.08
670.47494	-14.28
670.4866	-6.28
670.49825	10.32
670.5099	0.72
670.52155	1.72
670.5332	11.52
670.54484	-3.68
670.55648	-11.08
670.56812	12.72
670.57976	-1.88
670.59139	-10.48
670.60302	-5.08
670.61465	0.72
670.62628	-3.08
670.6379	-7.48
670.64952	10.72
670.66114	-6.28
670.67276	-23.28
670.68438	-2.28
670.69599	7.92
670.7076	0.12
670.7192	9.52
670.73081	29.32
670.74241	21.32
670.75401	2.52
670.76561	10.12
670.7772	12.12
670.78879	-0.48
670.80038	-8.08
670.81197	-14.68
670.82355	-5.68
670.83514	4.12
670.84672	-2.48
670.85829	-7.88
670.86987	-9.88
670.88144	-4.48
670.89301	-13.08
670.90458	-12.28
670.91614	-9.68
670.92771	-5.68
670.93927	1.72
670.95083	7.12
670.96238	0.92
670.97393	-11.08
670.98548	-11.08
670.99703	-14.48
671.00858	-9.68
671.02012	-5.88
671.03166	-17.48
671.0432	-11.68
671.05473	0.12
671.06627	0.32
671.0778	-9.48
671.08933	-10.28
671.10085	6.32
671.11238	11.32
671.1239	5.32
671.13542	11.52
671.14693	8.92
671.15845	4.72
671.16996	26.12
671.18147	52.52
671.19297	130.92
671.20448	345.92
671.21598	681.32
671.22748	1053.32
671.23897	1239.12
671.25047	1064.92
671.26196	727.52
671.27345	488.92
671.28493	341.32
671.29642	244.52
671.3079	175.12
671.31938	127.32
671.33085	83.92
671.34233	70.32
671.3538	58.52
671.36527	32.32
671.37674	1.72
671.3882	-1.88
671.39966	-4.08
671.41112	1.32
671.42258	-10.88
671.43404	9.52
671.44549	13.32
671.45694	-1.48
671.46838	11.12
671.47983	10.92
671.49127	-2.08
671.50271	16.52
671.51415	8.32
671.52558	5.52
671.53702	3.92
671.54845	17.72
671.55987	2.72
671.5713	-4.68
671.58272	-4.88
671.59414	7.32
671.60556	33.12
671.61698	21.72
671.62839	-4.68
671.6398	3.92
671.65121	-3.68
671.66261	-7.08
671.67402	-17.28
671.68542	-9.68
671.69681	-20.48
671.70821	-14.68
671.7196	-0.68
671.73099	-12.08
671.74238	1.72
671.75377	2.32
671.76515	-7.68
671.77653	-5.28
671.78791	2.92
671.79929	19.72
671.81066	10.52
671.82203	14.12
671.8334	-6.88
671.84477	-6.28
671.85613	-1.48
671.86749	7.32
671.87885	27.52
671.89021	38.52
671.90156	2.52
671.91291	-8.68
671.92426	-15.48
671.93561	-6.28
671.94695	-7.88
671.9583	-4.48
671.96963	14.32
671.98097	10.52
671.99231	7.72
672.00364	-18.28
672.01497	-4.08
672.02629	-1.48
672.03762	-11.68
672.04894	-5.68
672.06026	-14.08
672.07158	-21.48
672.08289	-10.88
672.0942	-13.28
672.10551	20.52
672.11682	45.72
672.12813	4.72
672.13943	-1.08
672.15073	-7.68
672.16203	-8.88
672.17332	-10.68
672.18461	-8.28
672.1959	9.12
672.20719	8.52
672.21848	12.72
672.22976	16.52
672.24104	11.92
672.25232	-1.68
672.26359	-2.08
672.27487	-7.88
672.28614	6.72
672.29741	6.52
672.30867	-9.48
672.31993	-9.48
672.33119	-5.28
672.34245	-4.28
672.35371	-18.08
672.36496	-2.88
672.37621	0.12
672.38746	-12.48
672.39871	-14.08
672.40995	-8.28
672.42119	3.92
672.43243	18.12
672.44367	8.72
672.4549	-7.48
672.46613	6.12
672.47736	8.92
672.48859	9.12
672.49981	1.92
672.51103	-2.28
672.52225	-2.28
672.53347	-6.08
672.54468	-6.08
672.55589	10.92
672.5671	1.32
672.57831	-6.68
672.58951	6.12
672.60072	6.92
672.61191	-8.08
672.62311	-8.68
672.63431	-5.88
672.6455	7.72
672.65669	-3.88
672.66787	-12.08
672.67906	-16.48
672.69024	-13.08
672.70142	-12.08
672.7126	-6.28
672.72377	-14.68
672.73494	-6.48
672.74611	-2.28
672.75728	-4.48
672.76845	-0.28
672.77961	5.52
672.79077	-6.88
672.80193	-15.88
672.81308	-1.88
672.82423	5.32
672.83539	8.92
672.84653	-2.48
672.85768	-9.48
672.86882	1.52
672.87996	5.12
672.8911	-8.28
672.90223	0.32
672.91337	-9.68
672.9245	-12.48
672.93563	-11.28
672.94675	-0.28
672.95788	10.52
672.969	-7.28
672.98011	-4.48
672.99123	10.52
673.00234	-3.08
673.01345	-7.88
673.02456	-21.08
673.03567	-8.28
673.04677	9.32
673.05787	-2.28
673.06897	-1.88
673.08007	-10.08
673.09116	-11.28
673.10225	-27.68
673.11334	-3.88
673.12443	12.72
673.13551	12.52
673.14659	4.52
673.15767	-7.28
673.16875	-4.48
673.17982	-8.28
673.1909	-8.68
673.20196	-3.08
673.21303	-5.28
673.2241	-3.48
673.23516	8.12
673.24622	-2.28
673.25727	3.52
673.26833	-4.08
673.27938	3.32
673.29043	5.52
673.30148	13.52
673.31252	1.52
673.32356	-0.68
673.3346	-2.48
673.34564	2.12
673.35668	-6.68
673.36771	-15.48
673.37874	-0.48
673.38977	4.32
673.40079	14.72
673.41181	0.72
673.42283	4.72
673.43385	-6.68
673.44487	1.32
673.45588	-4.28
673.46689	-17.08
673.4779	1.12
673.4889	10.92
673.4999	-3.48
673.51091	-1.08
673.5219	5.92
673.5329	19.52
673.54389	7.52
673.55488	-12.08
673.56587	0.92
673.57686	-3.68
673.58784	-4.68
673.59882	4.52
673.6098	-8.68
673.62077	13.72
673.63175	44.12
673.64272	10.52
673.65369	-10.88
673.66465	2.12
673.67562	-7.08
673.68658	-1.08
673.69754	-15.88
673.70849	-0.68
673.71945	4.52
673.7304	19.12
673.74135	37.12
673.75229	24.12
673.76324	28.72
673.77418	-4.88
673.78512	3.12
673.79605	3.72
673.80699	8.32
673.81792	-3.48
673.82885	10.32
673.83978	22.52
673.8507	13.92
673.86162	2.92
673.87254	-9.08
673.88346	4.32
673.89437	3.72
673.90529	8.12
673.9162	18.92
673.9271	6.52
673.93801	12.52
673.94891	-9.48
673.95981	-5.68
673.97071	-1.28
673.9816	4.92
673.99249	-0.48
674.00338	3.52
674.01427	-5.08
674.02516	-8.08
674.03604	-23.68
674.04692	-19.68
674.0578	-5.48
674.06867	2.72
674.07954	4.52
674.09042	23.12
674.10128	-12.88
674.11215	-20.88
674.12301	-2.88
674.13387	-2.08
674.14473	-7.08
674.15559	-6.88
674.16644	-6.08
674.17729	-13.28
674.18814	-8.88
674.19898	-4.08
674.20983	-10.28
674.22067	-10.28
674.23151	-6.68
674.24234	-17.08
674.25318	-6.68
674.26401	20.32
674.27483	7.52
674.28566	-18.08
674.29648	-22.88
674.30731	-20.08
674.31812	-10.48
674.32894	-9.48
674.33975	7.12
674.35057	0.32
674.36137	-5.88
674.37218	5.32
674.38299	-21.88
674.39379	-16.28
674.40459	12.52
674.41538	2.72
674.42618	-10.28
674.43697	-14.68
674.44776	-14.28
674.45854	-3.68
674.46933	5.12
674.48011	6.52
674.49089	-7.08
674.50167	-11.28
674.51244	-17.88
674.52321	-22.68
674.53398	-33.68
674.54475	-20.28
674.55552	-4.08
674.56628	-4.48
674.57704	-0.48
674.5878	5.12
674.59855	-5.08
674.6093	3.92
674.62005	6.52
674.6308	2.32
674.64155	-9.48
674.65229	-8.28
674.66303	-10.08
674.67377	8.32
674.6845	7.92
674.69523	20.72
674.70596	7.52
674.71669	-5.48
674.72742	-17.88
674.73814	-13.68
674.74886	-7.88
674.75958	-9.08
674.77029	-5.28
674.78101	-9.48
674.79172	5.72
674.80243	-1.08
674.81313	-5.48
674.82384	8.52
674.83454	-1.28
674.84524	-16.08
674.85593	-8.48
674.86663	-4.48
674.87732	-8.08
674.888	0.92
674.89869	-0.48
674.90937	5.72
674.92006	9.92
674.93073	9.32
674.94141	-6.68
674.95208	-5.08
674.96276	20.72
674.97343	12.12
674.98409	9.92
674.99476	9.52
675.00542	-5.88
675.01608	-5.88
675.02673	-10.28
675.03739	-10.68
675.04804	2.72
675.05869	14.92
675.06934	10.52
675.07998	8.72
675.09062	-19.48
675.10126	-20.48
675.1119	-11.28
675.12253	8.32
675.13317	7.32
675.1438	0.12
675.15442	-8.08
675.16505	-14.08
675.17567	8.32
675.18629	19.92
675.19691	11.52
675.20752	0.12
675.21813	-1.28
675.22874	-3.68
675.23935	8.32
675.24996	1.92
675.26056	16.72
675.27116	9.32
675.28176	1.92
675.29235	1.72
675.30295	0.52
675.31354	2.32
675.32412	-6.48
675.33471	-15.68
675.34529	-12.68
675.35587	-10.48
675.36645	-20.48
675.37703	-24.48
675.3876	-13.88
675.39817	-6.48
675.40874	-6.88
675.41931	-1.68
675.42987	13.32
675.44043	1.92
675.45099	-6.68
675.46154	6.72
675.4721	5.72
675.48265	6.92
675.4932	9.52
675.50374	9.12
675.51429	-6.08
675.52483	-9.48
675.53537	-18.88
675.5459	-5.28
675.55644	13.52
675.56697	4.72
675.5775	-7.48
675.58803	-12.68
675.59855	-4.08
675.60907	-7.08
675.61959	-13.48
675.63011	-13.08
675.64062	-16.68
675.65113	-5.28
675.66164	6.52
675.67215	-1.48
675.68265	-2.28
675.69316	-3.28
675.70366	-6.08
675.71415	7.52
675.72465	20.32
675.73514	10.12
675.74563	15.92
675.75612	-10.48
675.7666	-3.68
675.77708	4.52
675.78756	-1.68
675.79804	-4.28
675.80852	19.92
675.81899	27.72
675.82946	-2.88
675.83993	0.92
675.85039	13.32
675.86085	12.92
675.87131	20.32
675.88177	5.12
675.89223	10.52
675.90268	14.92
675.91313	6.92
675.92358	4.92
675.93402	-4.48
675.94447	-3.28
675.95491	12.92
675.96535	-1.88
675.97578	9.92
675.98622	21.52
675.99665	-10.08
676.00707	3.32
676.0175	11.72
676.02792	5.32
676.03835	-7.28
676.04876	-4.88
676.05918	-7.68
676.06959	-0.08
676.08	19.12
676.09041	10.92
676.10082	-10.88
676.11122	-3.28
676.12162	72.72
676.13202	152.12
676.14242	21.12
676.15281	-6.28
676.16321	-16.28
676.17359	-13.68
676.18398	-19.48
676.19437	-1.48
676.20475	-9.68
676.21513	-13.08
676.2255	-4.08
676.23588	18.12
676.24625	9.12
676.25662	-8.68
676.26699	-12.88
676.27735	-5.68
676.28771	15.12
676.29807	10.52
676.30843	6.32
676.31878	-0.28
676.32914	8.72
676.33949	16.72
676.34983	15.12
676.36018	0.52
676.37052	-16.08
676.38086	-19.08
676.3912	-17.48
676.40153	-2.88
676.41187	7.72
676.4222	-5.08
676.43252	8.92
676.44285	30.32
676.45317	5.92
676.46349	-11.08
676.47381	0.52
676.48413	9.72
676.49444	2.92
676.50475	6.92
676.51506	6.32
676.52536	17.92
676.53567	-0.88
676.54597	6.32
676.55626	9.32
676.56656	2.72
676.57685	-5.88
676.58714	3.32
676.59743	2.72
676.60772	0.12
676.618	-5.88
676.62828	-5.88
676.63856	-16.08
676.64884	-9.68
676.65911	-10.48
676.66938	-13.28
676.67965	-3.88
676.68992	12.32
676.70018	12.92
676.71044	1.52
676.7207	35.72
676.73096	21.12
676.74121	7.72
676.75146	11.32
676.76171	24.72
676.77196	1.32
676.7822	-15.28
676.79245	-4.48
676.80269	6.52
676.81292	-18.08
676.82316	-20.88
676.83339	8.52
676.84362	28.72
676.85385	0.12
676.86407	5.12
676.87429	4.52
676.88451	7.12
676.89473	5.12
676.90494	-34.08
676.91516	-23.88
676.92537	-12.28
676.93557	4.32
676.94578	-8.68
676.95598	-9.88
676.96618	-15.68
676.97638	-10.48
676.98657	-5.28
676.99677	-12.88
677.00696	1.52
677.01714	28.92
677.02733	16.92
677.03751	6.12
677.04769	2.32
677.05787	-8.48
677.06805	-10.48
677.07822	-5.48
677.08839	3.32
677.09856	-10.28
677.10872	-13.28
677.11889	-7.68
677.12905	8.32
677.13921	7.72
677.14936	-14.88
677.15951	-12.48
677.16967	-1.08
677.17981	9.32
677.18996	10.32
677.2001	-11.68
677.21025	-21.28
677.22038	-7.28
677.23052	-6.88
677.24065	-11.48
677.25078	-0.68
677.26091	7.52
677.27104	3.52
677.28116	-7.68
677.29129	2.72
677.3014	-0.68
677.31152	19.92
677.32164	82.52
677.33175	-2.28
677.34186	-7.88
677.35196	-2.48
677.36207	11.92
677.37217	15.32
677.38227	14.32
677.39236	1.72
677.40246	-2.88
677.41255	-12.68
677.42264	0.72
677.43273	-1.68
677.44281	1.72
677.45289	16.92
677.46297	-8.68
677.47305	-16.88
677.48313	-13.68
677.4932	1.52
677.50327	-6.68
677.51334	-5.68
677.5234	-3.08
677.53346	13.12
677.54352	-1.28
677.55358	-6.48
677.56364	0.32
677.57369	21.92
677.58374	4.72
677.59379	-23.28
677.60383	-14.08
677.61388	-3.08
677.62392	-6.28
677.63395	-10.88
677.64399	8.32
677.65402	22.12
677.66405	6.72
677.67408	-10.48
677.68411	-7.48
677.69413	5.72
677.70415	4.92
677.71417	2.72
677.72419	-8.28
677.7342	-9.28
677.74421	-15.68
677.75422	-19.08
677.76422	-11.48
677.77423	8.12
677.78423	18.12
677.79423	-6.48
677.80422	5.72
677.81422	4.52
677.82421	-14.88
677.8342	-3.08
677.84418	-4.48
677.85417	2.12
677.86415	12.52
677.87413	-2.08
677.88411	-15.88
677.89408	11.32
677.90405	9.92
677.91402	0.52
677.92399	4.32
677.93395	25.12
677.94391	3.32
677.95387	-15.68
677.96383	-9.48
677.97378	-0.48
677.98374	-1.48
677.99369	1.72
678.00363	13.32
678.01358	-10.68
678.02352	-2.28
678.03346	2.52
678.0434	-2.88
678.05333	-8.48
678.06326	3.32
678.07319	0.52
678.08312	-2.88
678.09305	17.52
678.10297	3.12
678.11289	-13.68
678.12281	-2.88
678.13272	-0.88
678.14264	-1.88
678.15255	-0.48
678.16245	2.72
678.17236	-6.08
678.18226	-3.48
678.19216	-7.28
678.20206	-13.88
678.21196	-9.08
678.22185	12.92
678.23174	8.72
678.24163	8.32
678.25151	12.72
678.2614	23.52
678.27128	19.52
678.28116	11.32
678.29103	8.72
678.30091	3.92
678.31078	-7.28
678.32065	-8.88
678.33051	4.52
678.34037	-7.48
678.35024	-19.88
678.36009	-9.08
678.36995	-2.48
678.37981	-1.48
678.38966	-17.68
678.39951	-12.68
678.40935	-3.08
678.4192	-3.48
678.42904	-13.08
678.43888	-1.28
678.44871	-2.48
678.45855	13.72
678.46838	18.32
678.47821	-4.28
678.48804	0.32
678.49786	20.12
678.50768	24.12
678.5175	6.92
678.52732	16.92
678.53713	10.12
678.54694	-0.68
678.55675	-13.68
678.56656	-12.88
678.57637	-12.28
678.58617	-13.88
678.59597	5.52
678.60577	-0.68
678.61556	-19.48
678.62535	0.52
678.63514	19.32
678.64493	15.12
678.65472	-4.68
678.6645	4.32
678.67428	3.72
678.68406	-1.88
678.69383	-4.88
678.7036	-8.28
678.71337	-3.28
678.72314	4.52
678.73291	6.12
678.74267	-3.68
678.75243	-12.88
678.76219	-7.88
678.77195	4.92
678.7817	-2.28
678.79145	3.12
678.8012	-1.08
678.81094	-6.68
678.82069	-14.08
678.83043	53.52
678.84017	127.72
678.8499	-0.28
678.85964	-3.08
678.86937	0.92
678.87909	9.92
678.88882	0.12
678.89854	-6.48
678.90827	-1.68
678.91798	-2.28
678.9277	-1.08
678.93742	-15.48
678.94713	-10.48
678.95684	-2.68
678.96654	4.72
678.97625	2.92
678.98595	8.92
678.99565	-5.48
679.00534	-13.68
679.01504	-10.08
679.02473	-12.88
679.03442	-9.88
679.04411	11.92
679.05379	0.92
679.06347	-9.08
679.07315	-3.08
679.08283	-1.28
679.0925	-9.48
679.10218	3.12
679.11185	-3.08
679.12151	-6.48
679.13118	-4.08
679.14084	-7.68
679.1505	-5.68
679.16016	-10.68
679.16981	-17.48
679.17946	7.92
679.18911	15.92
679.19876	-14.08
679.20841	3.52
679.21805	3.52
679.22769	2.52
679.23733	9.72
679.24696	9.92
679.2566	-6.08
679.26623	-1.68
679.27585	-0.28
679.28548	-14.08
679.2951	-3.88
679.30472	-6.68
679.31434	-12.88
679.32396	-10.88
679.33357	-8.48
679.34318	18.72
679.35279	27.92
679.3624	-6.68
679.372	4.12
679.3816	13.32
679.3912	-4.28
679.40079	23.72
679.41039	5.52
679.41998	-1.28
679.42957	-5.48
679.43915	-7.48
679.44874	3.72
679.45832	23.72
679.4679	4.32
679.47747	-17.28
679.48705	-13.68
679.49662	9.92
679.50619	3.12
679.51575	-10.28
679.52532	0.72
679.53488	16.52
679.54444	1.12
679.554	-2.28
679.56355	2.92
679.5731	5.32
679.58265	-1.48
679.5922	-10.28
679.60174	8.52
679.61129	20.32
679.62083	4.32
679.63036	-15.88
679.6399	-7.68
679.64943	18.52
679.65896	2.32
679.66849	-10.28
679.67801	-0.68
679.68753	9.12
679.69705	16.12
679.70657	19.72
679.71609	16.12
679.7256	26.92
679.73511	14.52
679.74462	-5.08
679.75412	-3.88
679.76362	13.72
679.77312	11.32
679.78262	-5.68
679.79212	-3.48
679.80161	8.32
679.8111	-10.28
679.82059	-6.68
679.83007	11.12
679.83956	12.12
679.84904	2.12
679.85852	2.72
679.86799	-12.48
679.87747	2.32
679.88694	-1.68
679.8964	-17.28
679.90587	-13.48
679.91533	6.92
679.92479	1.52
679.93425	-6.48
679.94371	14.12
679.95316	17.72
679.96261	7.92
679.97206	-3.08
679.98151	-3.88
679.99095	-13.88
680.00039	-9.68
680.00983	-6.48
680.01927	-3.68
680.0287	-4.28
680.03814	21.92
680.04756	-4.08
680.05699	-12.28
680.06641	0.12
680.07584	-8.08
680.08526	-16.68
680.09467	-5.68
680.10409	-12.28
680.1135	-19.08
680.12291	-12.88
680.13232	0.52
680.14172	20.32
680.15112	4.72
680.16052	-9.08
680.16992	-6.08
680.17931	3.32
680.18871	9.72
680.1981	-16.48
680.20748	-20.28
680.21687	-9.28
