Data from HR4C25001_14-53-42-686.txt Node
Date: Tue Jun 16 14:53:42 CDT 2026
User: jam28248
Spectrometer: HR4C2500
Trigger mode: 4
Integration Time (sec): 1.000000E-1
Scans to average: 1
Electric dark correction enabled: true
Nonlinearity correction enabled: false
Boxcar width: 0
XAxis mode: Wavelengths
Number of Pixels in Spectrum: 3648
>>>>>Begin Spectral Data<<<<<
629.66646	-42.46
629.6848	-42.46
629.70313	-42.46
629.72147	-84.46
629.7398	-50.46
629.75812	-9.46
629.77645	-5.46
629.79477	-1.46
629.81309	-10.46
629.83141	-10.46
629.84972	28.54
629.86803	11.54
629.88634	16.54
629.90465	-13.46
629.92295	-15.46
629.94126	-15.46
629.95956	-9.46
629.97785	34.54
629.99615	120.54
630.01444	128.54
630.03273	65.54
630.05102	24.54
630.0693	21.54
630.08759	24.54
630.10587	5.54
630.12415	3.54
630.14242	4.54
630.16069	-23.46
630.17896	4.54
630.19723	13.54
630.2155	28.54
630.23376	83.54
630.25202	42.54
630.27028	10.54
630.28854	4.54
630.30679	-0.46
630.32504	-10.46
630.34329	-13.46
630.36153	10.54
630.37978	26.54
630.39802	16.54
630.41626	-1.46
630.43449	-18.46
630.45273	-17.46
630.47096	5.54
630.48919	6.54
630.50741	18.54
630.52564	8.54
630.54386	18.54
630.56208	28.54
630.58029	2.54
630.59851	3.54
630.61672	-1.46
630.63493	3.54
630.65313	5.54
630.67134	3.54
630.68954	-4.46
630.70774	9.54
630.72594	9.54
630.74413	6.54
630.76232	-3.46
630.78051	-6.46
630.7987	-4.46
630.81688	13.54
630.83507	16.54
630.85325	2.54
630.87142	-1.46
630.8896	-5.46
630.90777	-13.46
630.92594	-16.46
630.94411	15.54
630.96227	45.54
630.98043	54.54
630.99859	4.54
631.01675	18.54
631.03491	-1.46
631.05306	-13.46
631.07121	9.54
631.08936	-1.46
631.1075	-6.46
631.12564	-4.46
631.14379	13.54
631.16192	7.54
631.18006	16.54
631.19819	11.54
631.21632	7.54
631.23445	-19.46
631.25258	-10.46
631.2707	10.54
631.28882	5.54
631.30694	18.54
631.32505	15.54
631.34317	6.54
631.36128	1.54
631.37939	1.54
631.39749	-6.46
631.4156	-6.46
631.4337	-13.46
631.4518	1.54
631.46989	-18.46
631.48799	0.54
631.50608	0.54
631.52417	-11.46
631.54225	-1.46
631.56034	0.54
631.57842	20.54
631.5965	-2.46
631.61457	-33.46
631.63265	-12.46
631.65072	1.54
631.66879	-13.46
631.68685	14.54
631.70492	28.54
631.72298	29.54
631.74104	5.54
631.7591	-3.46
631.77715	12.54
631.7952	17.54
631.81325	9.54
631.8313	-14.46
631.84934	8.54
631.86739	4.54
631.88543	-9.46
631.90346	-1.46
631.9215	-20.46
631.93953	0.54
631.95756	0.54
631.97559	7.54
631.99361	-11.46
632.01163	-22.46
632.02965	11.54
632.04767	21.54
632.06569	9.54
632.0837	5.54
632.10171	-6.46
632.11972	-21.46
632.13772	7.54
632.15573	27.54
632.17373	-10.46
632.19172	-18.46
632.20972	-1.46
632.22771	-30.46
632.2457	-12.46
632.26369	8.54
632.28168	18.54
632.29966	1.54
632.31764	15.54
632.33562	0.54
632.35359	-7.46
632.37157	-2.46
632.38954	1.54
632.40751	0.54
632.42547	-18.46
632.44344	22.54
632.4614	12.54
632.47936	6.54
632.49731	4.54
632.51527	5.54
632.53322	21.54
632.55117	14.54
632.56911	19.54
632.58706	18.54
632.605	-0.46
632.62294	18.54
632.64087	15.54
632.65881	-16.46
632.67674	0.54
632.69467	0.54
632.7126	-7.46
632.73052	1.54
632.74844	20.54
632.76636	29.54
632.78428	36.54
632.80219	67.54
632.8201	79.54
632.83801	53.54
632.85592	66.54
632.87383	130.54
632.89173	239.54
632.90963	719.54
632.92753	1871.54
632.94542	2835.54
632.96331	2217.54
632.9812	895.54
632.99909	293.54
633.01697	119.54
633.03486	68.54
633.05274	41.54
633.07061	14.54
633.08849	-0.46
633.10636	12.54
633.12423	32.54
633.1421	10.54
633.15997	19.54
633.17783	15.54
633.19569	8.54
633.21355	27.54
633.2314	25.54
633.24926	-11.46
633.26711	-12.46
633.28495	6.54
633.3028	-11.46
633.32064	-1.46
633.33848	3.54
633.35632	21.54
633.37416	25.54
633.39199	13.54
633.40982	2.54
633.42765	2.54
633.44548	-4.46
633.4633	-12.46
633.48112	-6.46
633.49894	-5.46
633.51676	-6.46
633.53457	-15.46
633.55238	2.54
633.57019	-1.46
633.588	-9.46
633.6058	-34.46
633.6236	-2.46
633.6414	20.54
633.6592	-6.46
633.67699	-23.46
633.69478	3.54
633.71257	12.54
633.73036	10.54
633.74815	-12.46
633.76593	-9.46
633.78371	2.54
633.80148	-13.46
633.81926	-17.46
633.83703	-16.46
633.8548	-40.46
633.87257	-30.46
633.89033	-10.46
633.90809	9.54
633.92585	2.54
633.94361	-6.46
633.96137	12.54
633.97912	9.54
633.99687	-28.46
634.01462	-1.46
634.03236	13.54
634.0501	9.54
634.06784	-13.46
634.08558	11.54
634.10332	12.54
634.12105	-3.46
634.13878	4.54
634.15651	9.54
634.17423	0.54
634.19196	-27.46
634.20968	-16.46
634.22739	3.54
634.24511	4.54
634.26282	11.54
634.28053	18.54
634.29824	6.54
634.31595	-2.46
634.33365	-19.46
634.35135	-18.46
634.36905	-20.46
634.38675	10.54
634.40444	4.54
634.42213	-1.46
634.43982	2.54
634.4575	8.54
634.47519	17.54
634.49287	23.54
634.51055	-5.46
634.52822	-10.46
634.5459	-4.46
634.56357	-8.46
634.58124	-29.46
634.59891	-8.46
634.61657	8.54
634.63423	18.54
634.65189	25.54
634.66955	1.54
634.6872	1.54
634.70485	-12.46
634.7225	0.54
634.74015	9.54
634.75779	-3.46
634.77544	-1.46
634.79307	-4.46
634.81071	14.54
634.82835	6.54
634.84598	-12.46
634.86361	-24.46
634.88123	5.54
634.89886	1.54
634.91648	-16.46
634.9341	-1.46
634.95172	-2.46
634.96933	-9.46
634.98695	4.54
635.00456	-6.46
635.02216	-16.46
635.03977	-0.46
635.05737	-2.46
635.07497	-12.46
635.09257	7.54
635.11016	3.54
635.12776	0.54
635.14535	-10.46
635.16294	15.54
635.18052	7.54
635.1981	1.54
635.21569	11.54
635.23326	-3.46
635.25084	17.54
635.26841	-17.46
635.28598	-12.46
635.30355	-13.46
635.32112	-9.46
635.33868	-25.46
635.35624	-21.46
635.3738	6.54
635.39136	-15.46
635.40891	-16.46
635.42646	-3.46
635.44401	6.54
635.46155	4.54
635.4791	-12.46
635.49664	-3.46
635.51418	9.54
635.53171	-8.46
635.54925	-0.46
635.56678	-14.46
635.58431	-4.46
635.60184	26.54
635.61936	19.54
635.63688	-0.46
635.6544	3.54
635.67192	-4.46
635.68943	-2.46
635.70694	-2.46
635.72445	-11.46
635.74196	-20.46
635.75946	-20.46
635.77697	-12.46
635.79447	-7.46
635.81196	2.54
635.82946	-28.46
635.84695	-25.46
635.86444	-8.46
635.88193	-4.46
635.89941	2.54
635.91689	-14.46
635.93437	-8.46
635.95185	-7.46
635.96933	-23.46
635.9868	-4.46
636.00427	29.54
636.02174	13.54
636.0392	-3.46
636.05666	1.54
636.07412	-7.46
636.09158	-13.46
636.10904	-2.46
636.12649	-3.46
636.14394	-2.46
636.16139	19.54
636.17883	0.54
636.19628	-12.46
636.21372	-12.46
636.23116	-7.46
636.24859	-5.46
636.26602	-4.46
636.28345	-3.46
636.30088	0.54
636.31831	-0.46
636.33573	-5.46
636.35315	4.54
636.37057	7.54
636.38799	-16.46
636.4054	9.54
636.42281	1.54
636.44022	3.54
636.45763	-11.46
636.47503	-27.46
636.49243	-20.46
636.50983	-16.46
636.52723	-2.46
636.54462	-7.46
636.56201	6.54
636.5794	-22.46
636.59679	-26.46
636.61417	-7.46
636.63155	-11.46
636.64893	20.54
636.66631	13.54
636.68368	-6.46
636.70106	-26.46
636.71843	-25.46
636.73579	-27.46
636.75316	4.54
636.77052	2.54
636.78788	12.54
636.80524	-7.46
636.82259	-15.46
636.83994	-32.46
636.85729	-22.46
636.87464	-15.46
636.89198	-23.46
636.90933	7.54
636.92667	8.54
636.944	-13.46
636.96134	-11.46
636.97867	-14.46
636.996	2.54
637.01333	1.54
637.03066	-16.46
637.04798	-22.46
637.0653	-1.46
637.08262	0.54
637.09993	-20.46
637.11724	-35.46
637.13455	3.54
637.15186	12.54
637.16917	4.54
637.18647	2.54
637.20377	16.54
637.22107	0.54
637.23837	2.54
637.25566	33.54
637.27295	1.54
637.29024	15.54
637.30752	0.54
637.32481	-3.46
637.34209	14.54
637.35937	23.54
637.37664	6.54
637.39392	4.54
637.41119	-2.46
637.42846	-3.46
637.44572	-16.46
637.46299	2.54
637.48025	26.54
637.49751	9.54
637.51476	-9.46
637.53202	16.54
637.54927	5.54
637.56652	-0.46
637.58376	0.54
637.60101	-3.46
637.61825	14.54
637.63549	13.54
637.65273	28.54
637.66996	16.54
637.68719	22.54
637.70442	41.54
637.72165	60.54
637.73887	80.54
637.7561	135.54
637.77332	421.54
637.79053	1574.54
637.80775	3451.54
637.82496	3670.54
637.84217	1788.54
637.85938	452.54
637.87658	148.54
637.89378	65.54
637.91098	37.54
637.92818	6.54
637.94538	26.54
637.96257	32.54
637.97976	27.54
637.99695	8.54
638.01413	-2.46
638.03132	1.54
638.0485	4.54
638.06567	-3.46
638.08285	12.54
638.10002	9.54
638.11719	-0.46
638.13436	-8.46
638.15153	4.54
638.16869	-24.46
638.18585	-7.46
638.20301	-7.46
638.22016	-31.46
638.23732	-28.46
638.25447	-17.46
638.27162	-13.46
638.28876	-14.46
638.30591	-24.46
638.32305	5.54
638.34019	0.54
638.35732	4.54
638.37446	8.54
638.39159	-7.46
638.40872	-19.46
638.42584	-11.46
638.44297	0.54
638.46009	-5.46
638.47721	-4.46
638.49432	-9.46
638.51144	7.54
638.52855	3.54
638.54566	-7.46
638.56276	3.54
638.57987	14.54
638.59697	9.54
638.61407	-7.46
638.63117	0.54
638.64826	-8.46
638.66535	-1.46
638.68244	-4.46
638.69953	10.54
638.71661	5.54
638.7337	-14.46
638.75078	-7.46
638.76785	4.54
638.78493	-9.46
638.802	-21.46
638.81907	-7.46
638.83614	-2.46
638.8532	3.54
638.87026	-6.46
638.88732	-16.46
638.90438	-11.46
638.92144	5.54
638.93849	17.54
638.95554	5.54
638.97259	-2.46
638.98963	8.54
639.00668	3.54
639.02372	-2.46
639.04075	18.54
639.05779	12.54
639.07482	3.54
639.09185	18.54
639.10888	-12.46
639.12591	-24.46
639.14293	-9.46
639.15995	-0.46
639.17697	37.54
639.19398	26.54
639.211	39.54
639.22801	29.54
639.24502	0.54
639.26202	-3.46
639.27903	-3.46
639.29603	16.54
639.31303	35.54
639.33002	2.54
639.34702	17.54
639.36401	10.54
639.381	3.54
639.39798	4.54
639.41497	16.54
639.43195	19.54
639.44893	-6.46
639.4659	4.54
639.48288	29.54
639.49985	37.54
639.51682	19.54
639.53379	12.54
639.55075	16.54
639.56771	20.54
639.58467	36.54
639.60163	59.54
639.61858	69.54
639.63553	97.54
639.65248	124.54
639.66943	184.54
639.68638	357.54
639.70332	1289.54
639.72026	4728.54
639.73719	9659.54
639.75413	9594.54
639.77106	4690.54
639.78799	1523.54
639.80492	590.54
639.82184	260.54
639.83877	146.54
639.85569	111.54
639.8726	75.54
639.88952	67.54
639.90643	14.54
639.92334	34.54
639.94025	39.54
639.95716	34.54
639.97406	27.54
639.99096	20.54
640.00786	29.54
640.02475	8.54
640.04165	5.54
640.05854	13.54
640.07542	5.54
640.09231	9.54
640.10919	26.54
640.12607	28.54
640.14295	12.54
640.15983	2.54
640.1767	-1.46
640.19357	-20.46
640.21044	-11.46
640.22731	13.54
640.24417	5.54
640.26103	17.54
640.27789	20.54
640.29475	0.54
640.3116	-16.46
640.32845	-6.46
640.3453	-4.46
640.36215	-1.46
640.37899	3.54
640.39583	32.54
640.41267	32.54
640.42951	-2.46
640.44634	-22.46
640.46317	-4.46
640.48	-13.46
640.49683	-13.46
640.51365	-17.46
640.53048	4.54
640.5473	16.54
640.56411	4.54
640.58093	9.54
640.59774	19.54
640.61455	7.54
640.63136	-2.46
640.64816	-11.46
640.66496	4.54
640.68176	16.54
640.69856	-3.46
640.71535	-8.46
640.73215	-9.46
640.74894	-8.46
640.76572	22.54
640.78251	14.54
640.79929	-17.46
640.81607	-3.46
640.83285	1.54
640.84963	5.54
640.8664	21.54
640.88317	25.54
640.89994	-7.46
640.9167	-4.46
640.93346	-4.46
640.95022	0.54
640.96698	-6.46
640.98374	-12.46
641.00049	-5.46
641.01724	-6.46
641.03399	-22.46
641.05074	-21.46
641.06748	-21.46
641.08422	4.54
641.10096	-0.46
641.11769	11.54
641.13443	-4.46
641.15116	-18.46
641.16789	-27.46
641.18461	-29.46
641.20134	21.54
641.21806	14.54
641.23478	0.54
641.25149	7.54
641.26821	13.54
641.28492	4.54
641.30163	4.54
641.31833	-19.46
641.33504	-5.46
641.35174	-5.46
641.36844	-9.46
641.38514	-8.46
641.40183	-0.46
641.41852	6.54
641.43521	1.54
641.4519	31.54
641.46858	5.54
641.48526	2.54
641.50194	-8.46
641.51862	-11.46
641.53529	-12.46
641.55197	3.54
641.56864	17.54
641.5853	-13.46
641.60197	-5.46
641.61863	12.54
641.63529	-13.46
641.65195	-30.46
641.6686	3.54
641.68526	14.54
641.70191	11.54
641.71855	23.54
641.7352	22.54
641.75184	2.54
641.76848	-2.46
641.78512	0.54
641.80175	0.54
641.81839	9.54
641.83502	23.54
641.85164	9.54
641.86827	13.54
641.88489	1.54
641.90151	-7.46
641.91813	10.54
641.93475	-1.46
641.95136	1.54
641.96797	-11.46
641.98458	-15.46
642.00119	6.54
642.01779	1.54
642.03439	5.54
642.05099	-6.46
642.06758	-16.46
642.08418	-3.46
642.10077	-7.46
642.11736	-5.46
642.13394	5.54
642.15053	9.54
642.16711	7.54
642.18369	-2.46
642.20026	14.54
642.21684	22.54
642.23341	24.54
642.24998	18.54
642.26654	19.54
642.28311	16.54
642.29967	12.54
642.31623	-19.46
642.33279	-13.46
642.34934	-18.46
642.36589	-20.46
642.38244	-41.46
642.39899	61.54
642.41553	188.54
642.43207	15.54
642.44861	-36.46
642.46515	-12.46
642.48169	4.54
642.49822	-9.46
642.51475	-10.46
642.53127	-5.46
642.5478	-10.46
642.56432	0.54
642.58084	16.54
642.59736	-19.46
642.61387	-3.46
642.63039	13.54
642.6469	14.54
642.6634	25.54
642.67991	-8.46
642.69641	-2.46
642.71291	-3.46
642.72941	2.54
642.74591	4.54
642.7624	-8.46
642.77889	-3.46
642.79538	-9.46
642.81186	-15.46
642.82834	-22.46
642.84483	-13.46
642.8613	1.54
642.87778	-23.46
642.89425	-3.46
642.91072	40.54
642.92719	10.54
642.94366	10.54
642.96012	17.54
642.97658	7.54
642.99304	7.54
643.0095	6.54
643.02595	-16.46
643.0424	-13.46
643.05885	8.54
643.0753	-14.46
643.09174	-16.46
643.10818	-11.46
643.12462	-4.46
643.14106	0.54
643.15749	-14.46
643.17392	-14.46
643.19035	26.54
643.20678	11.54
643.2232	2.54
643.23962	20.54
643.25604	16.54
643.27246	-3.46
643.28887	5.54
643.30528	2.54
643.32169	12.54
643.3381	3.54
643.35451	3.54
643.37091	5.54
643.38731	-2.46
643.4037	-9.46
643.4201	-9.46
643.43649	7.54
643.45288	28.54
643.46927	-1.46
643.48565	-15.46
643.50204	2.54
643.51842	4.54
643.53479	-20.46
643.55117	4.54
643.56754	-3.46
643.58391	-5.46
643.60028	-8.46
643.61664	2.54
643.63301	9.54
643.64937	10.54
643.66572	-7.46
643.68208	-21.46
643.69843	-10.46
643.71478	-18.46
643.73113	-17.46
643.74748	1.54
643.76382	-0.46
643.78016	-7.46
643.7965	4.54
643.81283	20.54
643.82917	7.54
643.8455	0.54
643.86183	21.54
643.87815	18.54
643.89448	0.54
643.9108	19.54
643.92712	11.54
643.94343	5.54
643.95974	-19.46
643.97606	-27.46
643.99236	-0.46
644.00867	30.54
644.02497	0.54
644.04128	-0.46
644.05758	-9.46
644.07387	8.54
644.09017	1.54
644.10646	7.54
644.12275	-1.46
644.13903	1.54
644.15532	-19.46
644.1716	-9.46
644.18788	28.54
644.20415	16.54
644.22043	1.54
644.2367	13.54
644.25297	-7.46
644.26924	-2.46
644.2855	9.54
644.30176	-6.46
644.31802	0.54
644.33428	11.54
644.35054	22.54
644.36679	10.54
644.38304	6.54
644.39928	-3.46
644.41553	-2.46
644.43177	-15.46
644.44801	-22.46
644.46425	-16.46
644.48048	5.54
644.49672	-0.46
644.51295	11.54
644.52917	-3.46
644.5454	6.54
644.56162	-9.46
644.57784	3.54
644.59406	4.54
644.61028	22.54
644.62649	15.54
644.6427	4.54
644.65891	3.54
644.67511	-25.46
644.69132	-10.46
644.70752	4.54
644.72372	-0.46
644.73991	-6.46
644.7561	3.54
644.7723	1.54
644.78848	6.54
644.80467	5.54
644.82085	-13.46
644.83703	-13.46
644.85321	8.54
644.86939	8.54
644.88556	18.54
644.90173	18.54
644.9179	27.54
644.93407	18.54
644.95023	19.54
644.96639	-0.46
644.98255	5.54
644.99871	-28.46
645.01486	-23.46
645.03102	-5.46
645.04716	0.54
645.06331	10.54
645.07946	56.54
645.0956	91.54
645.11174	6.54
645.12787	13.54
645.14401	-2.46
645.16014	12.54
645.17627	11.54
645.1924	5.54
645.20852	12.54
645.22464	10.54
645.24076	19.54
645.25688	32.54
645.27299	24.54
645.28911	22.54
645.30522	-10.46
645.32132	11.54
645.33743	21.54
645.35353	9.54
645.36963	-1.46
645.38573	12.54
645.40182	3.54
645.41792	6.54
645.43401	-15.46
645.45009	-10.46
645.46618	5.54
645.48226	-12.46
645.49834	-10.46
645.51442	-17.46
645.5305	-5.46
645.54657	7.54
645.56264	11.54
645.57871	-3.46
645.59477	8.54
645.61084	6.54
645.6269	14.54
645.64296	12.54
645.65901	17.54
645.67507	18.54
645.69112	4.54
645.70716	-5.46
645.72321	0.54
645.73925	3.54
645.7553	2.54
645.77133	-17.46
645.78737	-5.46
645.8034	16.54
645.81944	31.54
645.83546	0.54
645.85149	8.54
645.86751	3.54
645.88354	-2.46
645.89955	-16.46
645.91557	-4.46
645.93159	-10.46
645.9476	3.54
645.96361	5.54
645.97961	4.54
645.99562	25.54
646.01162	20.54
646.02762	-0.46
646.04361	-4.46
646.05961	-10.46
646.0756	-10.46
646.09159	7.54
646.10758	-0.46
646.12356	3.54
646.13954	16.54
646.15552	3.54
646.1715	21.54
646.18748	2.54
646.20345	-18.46
646.21942	-13.46
646.23539	21.54
646.25135	20.54
646.26731	-4.46
646.28327	12.54
646.29923	8.54
646.31519	18.54
646.33114	19.54
646.34709	5.54
646.36304	-10.46
646.37898	-27.46
646.39493	-32.46
646.41087	-23.46
646.4268	-12.46
646.44274	-16.46
646.45867	-9.46
646.4746	-3.46
646.49053	-7.46
646.50646	-2.46
646.52238	-29.46
646.5383	-13.46
646.55422	-6.46
646.57014	-12.46
646.58605	0.54
646.60196	22.54
646.61787	2.54
646.63377	1.54
646.64968	5.54
646.66558	-7.46
646.68148	-6.46
646.69737	4.54
646.71327	-6.46
646.72916	-13.46
646.74505	5.54
646.76093	14.54
646.77682	0.54
646.7927	-1.46
646.80858	-3.46
646.82446	-21.46
646.84033	-10.46
646.8562	2.54
646.87207	-5.46
646.88794	-6.46
646.9038	-21.46
646.91966	5.54
646.93552	4.54
646.95138	-22.46
646.96723	2.54
646.98309	11.54
646.99894	-5.46
647.01478	-8.46
647.03063	24.54
647.04647	-1.46
647.06231	-19.46
647.07815	-3.46
647.09398	-19.46
647.10981	-23.46
647.12564	-20.46
647.14147	-7.46
647.1573	9.54
647.17312	-17.46
647.18894	-22.46
647.20476	-32.46
647.22057	-34.46
647.23638	-19.46
647.25219	1.54
647.268	2.54
647.28381	5.54
647.29961	18.54
647.31541	-1.46
647.33121	-14.46
647.34701	-7.46
647.3628	-3.46
647.37859	15.54
647.39438	16.54
647.41016	4.54
647.42595	-4.46
647.44173	-9.46
647.45751	8.54
647.47328	10.54
647.48905	-6.46
647.50483	11.54
647.52059	-5.46
647.53636	-8.46
647.55212	-19.46
647.56789	11.54
647.58364	47.54
647.5994	-9.46
647.61515	-3.46
647.63091	7.54
647.64665	-6.46
647.6624	1.54
647.67814	-4.46
647.69389	-15.46
647.70963	-2.46
647.72536	-27.46
647.7411	-25.46
647.75683	-18.46
647.77256	-20.46
647.78828	2.54
647.80401	-10.46
647.81973	-3.46
647.83545	4.54
647.85117	-3.46
647.86688	-6.46
647.88259	-14.46
647.8983	7.54
647.91401	18.54
647.92971	25.54
647.94542	-12.46
647.96112	2.54
647.97681	10.54
647.99251	-2.46
648.0082	20.54
648.02389	8.54
648.03958	-9.46
648.05526	-16.46
648.07095	-9.46
648.08663	-13.46
648.1023	-31.46
648.11798	-20.46
648.13365	-21.46
648.14932	-10.46
648.16499	5.54
648.18066	-0.46
648.19632	-10.46
648.21198	-21.46
648.22764	-7.46
648.24329	6.54
648.25895	15.54
648.2746	-4.46
648.29025	-2.46
648.30589	-19.46
648.32153	-8.46
648.33718	-11.46
648.35281	-0.46
648.36845	37.54
648.38408	89.54
648.39971	7.54
648.41534	-15.46
648.43097	-15.46
648.44659	-11.46
648.46221	15.54
648.47783	16.54
648.49345	-8.46
648.50906	0.54
648.52467	8.54
648.54028	-18.46
648.55589	-8.46
648.57149	15.54
648.5871	11.54
648.6027	-11.46
648.61829	5.54
648.63389	4.54
648.64948	-9.46
648.66507	-6.46
648.68065	-13.46
648.69624	8.54
648.71182	10.54
648.7274	25.54
648.74298	24.54
648.75855	25.54
648.77412	6.54
648.78969	-9.46
648.80526	-24.46
648.82083	-7.46
648.83639	11.54
648.85195	-15.46
648.8675	-5.46
648.88306	-7.46
648.89861	-4.46
648.91416	-10.46
648.92971	-2.46
648.94526	18.54
648.9608	28.54
648.97634	13.54
648.99188	-1.46
649.00741	-13.46
649.02294	1.54
649.03847	4.54
649.054	-20.46
649.06953	3.54
649.08505	-8.46
649.10057	1.54
649.11609	-3.46
649.13161	-0.46
649.14712	-0.46
649.16263	-6.46
649.17814	-15.46
649.19364	-0.46
649.20915	23.54
649.22465	30.54
649.24015	25.54
649.25564	29.54
649.27114	-4.46
649.28663	-13.46
649.30212	-12.46
649.3176	-4.46
649.33309	-1.46
649.34857	-15.46
649.36405	-14.46
649.37952	20.54
649.395	12.54
649.41047	20.54
649.42594	13.54
649.4414	-12.46
649.45687	-20.46
649.47233	-12.46
649.48779	6.54
649.50324	10.54
649.5187	6.54
649.53415	-5.46
649.5496	11.54
649.56505	21.54
649.58049	4.54
649.59593	-1.46
649.61137	0.54
649.62681	-1.46
649.64224	-1.46
649.65768	1.54
649.67311	17.54
649.68853	23.54
649.70396	9.54
649.71938	12.54
649.7348	14.54
649.75022	12.54
649.76563	5.54
649.78105	21.54
649.79646	-0.46
649.81186	10.54
649.82727	13.54
649.84267	-6.46
649.85807	-6.46
649.87347	-12.46
649.88886	12.54
649.90426	8.54
649.91965	6.54
649.93504	-12.46
649.95042	3.54
649.9658	3.54
649.98119	11.54
649.99656	21.54
650.01194	0.54
650.02731	13.54
650.04268	21.54
650.05805	10.54
650.07342	18.54
650.08878	55.54
650.10414	93.54
650.1195	255.54
650.13486	1111.54
650.15021	3068.54
650.16556	4713.54
650.18091	4274.54
650.19626	3013.54
650.2116	2185.54
650.22694	1375.54
650.24228	803.54
650.25762	385.54
650.27295	210.54
650.28828	119.54
650.30361	71.54
650.31894	54.54
650.33426	27.54
650.34958	23.54
650.3649	52.54
650.38022	27.54
650.39553	-4.46
650.41085	-2.46
650.42616	12.54
650.44146	10.54
650.45677	21.54
650.47207	8.54
650.48737	15.54
650.50267	-6.46
650.51796	-6.46
650.53325	5.54
650.54854	11.54
650.56383	15.54
650.57911	3.54
650.5944	1.54
650.60968	2.54
650.62495	1.54
650.64023	3.54
650.6555	0.54
650.67077	-4.46
650.68604	-11.46
650.70131	5.54
650.71657	-2.46
650.73183	0.54
650.74709	13.54
650.76234	-11.46
650.77759	-4.46
650.79285	-0.46
650.80809	-5.46
650.82334	1.54
650.83858	-10.46
650.85382	9.54
650.86906	7.54
650.8843	15.54
650.89953	-5.46
650.91476	1.54
650.92999	-7.46
650.94522	1.54
650.96044	-4.46
650.97566	-10.46
650.99088	-18.46
651.00609	-16.46
651.02131	-16.46
651.03652	-5.46
651.05173	6.54
651.06693	-15.46
651.08214	-4.46
651.09734	-4.46
651.11254	-6.46
651.12773	-9.46
651.14293	5.54
651.15812	-18.46
651.17331	0.54
651.1885	22.54
651.20368	-6.46
651.21886	-8.46
651.23404	2.54
651.24922	-1.46
651.26439	-0.46
651.27956	-13.46
651.29473	-18.46
651.3099	16.54
651.32507	-18.46
651.34023	-19.46
651.35539	-11.46
651.37054	-30.46
651.3857	-41.46
651.40085	-6.46
651.416	-8.46
651.43115	-15.46
651.44629	-11.46
651.46144	-22.46
651.47658	-10.46
651.49171	2.54
651.50685	-2.46
651.52198	5.54
651.53711	10.54
651.55224	-13.46
651.56736	-0.46
651.58249	5.54
651.59761	4.54
651.61273	-35.46
651.62784	-13.46
651.64295	-0.46
651.65806	-16.46
651.67317	-26.46
651.68828	-15.46
651.70338	9.54
651.71848	14.54
651.73358	32.54
651.74868	-10.46
651.76377	3.54
651.77886	3.54
651.79395	-13.46
651.80904	-13.46
651.82412	-4.46
651.8392	-12.46
651.85428	-1.46
651.86935	12.54
651.88443	10.54
651.8995	-15.46
651.91457	-16.46
651.92963	-6.46
651.9447	26.54
651.95976	6.54
651.97482	5.54
651.98988	-4.46
652.00493	-9.46
652.01998	13.54
652.03503	24.54
652.05008	39.54
652.06512	87.54
652.08016	0.54
652.0952	-2.46
652.11024	27.54
652.12527	16.54
652.14031	-5.46
652.15534	-3.46
652.17036	0.54
652.18539	-0.46
652.20041	0.54
652.21543	-2.46
652.23045	-21.46
652.24546	-9.46
652.26047	-1.46
652.27548	-3.46
652.29049	2.54
652.3055	-8.46
652.3205	11.54
652.3355	7.54
652.3505	0.54
652.36549	-2.46
652.38048	9.54
652.39547	8.54
652.41046	11.54
652.42545	24.54
652.44043	19.54
652.45541	-13.46
652.47039	0.54
652.48536	-7.46
652.50034	-20.46
652.51531	-33.46
652.53028	-5.46
652.54524	2.54
652.5602	8.54
652.57517	-10.46
652.59012	29.54
652.60508	85.54
652.62003	14.54
652.63498	-13.46
652.64993	-14.46
652.66488	-1.46
652.67982	4.54
652.69476	3.54
652.7097	-4.46
652.72464	1.54
652.73957	34.54
652.7545	109.54
652.76943	451.54
652.78436	1161.54
652.79928	1770.54
652.8142	1664.54
652.82912	1115.54
652.84404	811.54
652.85895	557.54
652.87387	394.54
652.88877	235.54
652.90368	132.54
652.91859	56.54
652.93349	16.54
652.94839	6.54
652.96328	-3.46
652.97818	-6.46
652.99307	11.54
653.00796	29.54
653.02285	4.54
653.03773	15.54
653.05261	2.54
653.06749	-6.46
653.08237	-14.46
653.09725	-8.46
653.11212	-0.46
653.12699	-19.46
653.14186	12.54
653.15672	20.54
653.17158	-9.46
653.18644	10.54
653.2013	2.54
653.21616	10.54
653.23101	6.54
653.24586	-7.46
653.26071	-7.46
653.27555	18.54
653.29039	31.54
653.30524	3.54
653.32007	6.54
653.33491	212.54
653.34974	540.54
653.36457	41.54
653.3794	1.54
653.39423	-2.46
653.40905	-2.46
653.42387	-6.46
653.43869	2.54
653.45351	-6.46
653.46832	-21.46
653.48313	-22.46
653.49794	-10.46
653.51274	-2.46
653.52755	-3.46
653.54235	-3.46
653.55715	-9.46
653.57194	-18.46
653.58674	1.54
653.60153	3.54
653.61632	-14.46
653.6311	-26.46
653.64589	-13.46
653.66067	-0.46
653.67545	-0.46
653.69023	-15.46
653.705	-25.46
653.71977	-14.46
653.73454	-17.46
653.74931	-9.46
653.76407	1.54
653.77883	-14.46
653.79359	6.54
653.80835	5.54
653.8231	-4.46
653.83786	4.54
653.85261	22.54
653.86735	3.54
653.8821	35.54
653.89684	20.54
653.91158	-7.46
653.92632	19.54
653.94105	7.54
653.95579	17.54
653.97052	-4.46
653.98524	-11.46
653.99997	0.54
654.01469	4.54
654.02941	-3.46
654.04413	17.54
654.05884	-4.46
654.07356	2.54
654.08827	52.54
654.10297	130.54
654.11768	34.54
654.13238	23.54
654.14708	19.54
654.16178	1.54
654.17648	1.54
654.19117	-17.46
654.20586	-26.46
654.22055	-14.46
654.23524	-15.46
654.24992	30.54
654.2646	81.54
654.27928	37.54
654.29395	23.54
654.30863	23.54
654.3233	34.54
654.33797	2.54
654.35263	-1.46
654.3673	6.54
654.38196	-0.46
654.39662	-17.46
654.41127	-6.46
654.42593	20.54
654.44058	15.54
654.45523	-8.46
654.46987	-15.46
654.48452	8.54
654.49916	14.54
654.5138	15.54
654.52844	2.54
654.54307	3.54
654.5577	19.54
654.57233	5.54
654.58696	-6.46
654.60158	6.54
654.6162	-12.46
654.63082	-6.46
654.64544	3.54
654.66005	-18.46
654.67467	-11.46
654.68928	17.54
654.70388	-3.46
654.71849	9.54
654.73309	55.54
654.74769	124.54
654.76229	2.54
654.77688	16.54
654.79148	8.54
654.80607	-8.46
654.82065	14.54
654.83524	1.54
654.84982	1.54
654.8644	-3.46
654.87898	-28.46
654.89355	-8.46
654.90813	-5.46
654.9227	-15.46
654.93727	-19.46
654.95183	-13.46
654.96639	1.54
654.98095	2.54
654.99551	6.54
655.01007	14.54
655.02462	-13.46
655.03917	-16.46
655.05372	-16.46
655.06827	-22.46
655.08281	0.54
655.09735	-5.46
655.11189	-9.46
655.12643	-17.46
655.14096	-15.46
655.15549	4.54
655.17002	-15.46
655.18454	-28.46
655.19907	-23.46
655.21359	4.54
655.22811	14.54
655.24262	-1.46
655.25714	-17.46
655.27165	-7.46
655.28616	-28.46
655.30067	-16.46
655.31517	-13.46
655.32967	-8.46
655.34417	-2.46
655.35867	-20.46
655.37316	-11.46
655.38765	-17.46
655.40214	-3.46
655.41663	6.54
655.43111	5.54
655.4456	15.54
655.46008	-18.46
655.47455	-9.46
655.48903	-13.46
655.5035	-0.46
655.51797	-0.46
655.53244	2.54
655.5469	5.54
655.56136	33.54
655.57582	4.54
655.59028	-7.46
655.60474	-15.46
655.61919	-12.46
655.63364	21.54
655.64809	34.54
655.66253	-5.46
655.67697	-11.46
655.69141	1.54
655.70585	-10.46
655.72029	-27.46
655.73472	-11.46
655.74915	-21.46
655.76358	-11.46
655.778	-5.46
655.79243	19.54
655.80685	14.54
655.82127	-3.46
655.83568	11.54
655.8501	37.54
655.86451	5.54
655.87891	0.54
655.89332	-5.46
655.90772	-20.46
655.92212	-14.46
655.93652	24.54
655.95092	9.54
655.96531	5.54
655.9797	-12.46
655.99409	-7.46
656.00848	-19.46
656.02286	5.54
656.03724	6.54
656.05162	-13.46
656.066	-26.46
656.08037	-16.46
656.09475	-15.46
656.10911	-18.46
656.12348	-13.46
656.13784	4.54
656.15221	-0.46
656.16657	16.54
656.18092	11.54
656.19528	13.54
656.20963	-2.46
656.22398	-9.46
656.23833	11.54
656.25267	0.54
656.26701	3.54
656.28135	-7.46
656.29569	-18.46
656.31002	-6.46
656.32436	6.54
656.33869	22.54
656.35301	-8.46
656.36734	-8.46
656.38166	-28.46
656.39598	-36.46
656.4103	-26.46
656.42461	-12.46
656.43892	-8.46
656.45323	-22.46
656.46754	-2.46
656.48185	-4.46
656.49615	-19.46
656.51045	-1.46
656.52475	-2.46
656.53904	-5.46
656.55334	-11.46
656.56763	-14.46
656.58192	3.54
656.5962	11.54
656.61048	-20.46
656.62476	-12.46
656.63904	2.54
656.65332	-0.46
656.66759	2.54
656.68186	-12.46
656.69613	-11.46
656.7104	0.54
656.72466	19.54
656.73892	-2.46
656.75318	14.54
656.76744	-8.46
656.78169	-14.46
656.79594	21.54
656.81019	35.54
656.82444	-15.46
656.83868	-0.46
656.85292	-3.46
656.86716	-6.46
656.8814	0.54
656.89563	-14.46
656.90986	-16.46
656.92409	-9.46
656.93832	-1.46
656.95254	-12.46
656.96676	-3.46
656.98098	15.54
656.9952	-10.46
657.00941	-5.46
657.02363	-16.46
657.03784	-18.46
657.05204	-6.46
657.06625	16.54
657.08045	-8.46
657.09465	-2.46
657.10885	-26.46
657.12304	-18.46
657.13723	-21.46
657.15142	-10.46
657.16561	-23.46
657.1798	-28.46
657.19398	-42.46
657.20816	-19.46
657.22234	-24.46
657.23651	-20.46
657.25068	-28.46
657.26485	-18.46
657.27902	-12.46
657.29319	-18.46
657.30735	-8.46
657.32151	-7.46
657.33567	2.54
657.34982	6.54
657.36398	8.54
657.37813	11.54
657.39227	-2.46
657.40642	4.54
657.42056	8.54
657.4347	0.54
657.44884	4.54
657.46298	-7.46
657.47711	16.54
657.49124	15.54
657.50537	-16.46
657.5195	-14.46
657.53362	-6.46
657.54774	-5.46
657.56186	18.54
657.57598	26.54
657.59009	3.54
657.6042	9.54
657.61831	6.54
657.63242	6.54
657.64652	3.54
657.66062	13.54
657.67472	24.54
657.68882	22.54
657.70291	-0.46
657.717	-3.46
657.73109	-14.46
657.74518	2.54
657.75926	-4.46
657.77335	-23.46
657.78742	-3.46
657.8015	-4.46
657.81558	0.54
657.82965	-5.46
657.84372	-21.46
657.85778	-7.46
657.87185	4.54
657.88591	17.54
657.89997	2.54
657.91403	8.54
657.92808	1.54
657.94214	-18.46
657.95618	-7.46
657.97023	-7.46
657.98428	5.54
657.99832	44.54
658.01236	6.54
658.0264	-26.46
658.04043	-9.46
658.05447	4.54
658.0685	-16.46
658.08252	-27.46
658.09655	2.54
658.11057	19.54
658.12459	19.54
658.13861	27.54
658.15263	-8.46
658.16664	25.54
658.18065	-6.46
658.19466	-7.46
658.20866	-17.46
658.22267	-17.46
658.23667	3.54
658.25067	11.54
658.26466	0.54
658.27865	-1.46
658.29265	-11.46
658.30663	-3.46
658.32062	-14.46
658.3346	-17.46
658.34858	-9.46
658.36256	9.54
658.37654	1.54
658.39051	1.54
658.40448	1.54
658.41845	5.54
658.43242	0.54
658.44638	-13.46
658.46035	-21.46
658.4743	-7.46
658.48826	4.54
658.50221	5.54
658.51617	-11.46
658.53012	-13.46
658.54406	-22.46
658.55801	-6.46
658.57195	-17.46
658.58589	1.54
658.59983	1.54
658.61376	-30.46
658.62769	-6.46
658.64162	9.54
658.65555	17.54
658.66947	-7.46
658.6834	49.54
658.69731	158.54
658.71123	13.54
658.72515	6.54
658.73906	-1.46
658.75297	7.54
658.76688	-11.46
658.78078	-1.46
658.79468	-5.46
658.80858	-19.46
658.82248	-8.46
658.83638	-1.46
658.85027	1.54
658.86416	-0.46
658.87805	2.54
658.89193	-20.46
658.90582	-12.46
658.9197	-6.46
658.93357	-6.46
658.94745	-4.46
658.96132	-13.46
658.97519	2.54
658.98906	-19.46
659.00293	-28.46
659.01679	-23.46
659.03065	-26.46
659.04451	10.54
659.05837	-5.46
659.07222	-3.46
659.08607	-4.46
659.09992	0.54
659.11377	-0.46
659.12761	-13.46
659.14145	-11.46
659.15529	4.54
659.16913	5.54
659.18296	-6.46
659.19679	-16.46
659.21062	-2.46
659.22445	7.54
659.23827	52.54
659.25209	23.54
659.26591	15.54
659.27973	17.54
659.29354	-10.46
659.30735	-11.46
659.32116	6.54
659.33497	14.54
659.34877	20.54
659.36258	119.54
659.37637	440.54
659.39017	1034.54
659.40397	1576.54
659.41776	1563.54
659.43155	1101.54
659.44533	739.54
659.45912	605.54
659.4729	438.54
659.48668	335.54
659.50046	225.54
659.51423	140.54
659.52801	94.54
659.54178	67.54
659.55554	27.54
659.56931	11.54
659.58307	5.54
659.59683	9.54
659.61059	21.54
659.62434	57.54
659.6381	95.54
659.65185	-0.46
659.6656	-10.46
659.67934	-0.46
659.69308	3.54
659.70682	4.54
659.72056	0.54
659.7343	12.54
659.74803	-1.46
659.76176	-7.46
659.77549	3.54
659.78922	21.54
659.80294	-15.46
659.81666	-7.46
659.83038	6.54
659.84409	-5.46
659.85781	-7.46
659.87152	12.54
659.88523	-5.46
659.89893	-20.46
659.91264	1.54
659.92634	18.54
659.94004	2.54
659.95373	-4.46
659.96743	-6.46
659.98112	-0.46
659.99481	0.54
660.00849	-13.46
660.02218	0.54
660.03586	-4.46
660.04954	-15.46
660.06322	-7.46
660.07689	17.54
660.09056	30.54
660.10423	-13.46
660.1179	-4.46
660.13156	9.54
660.14522	-4.46
660.15888	-4.46
660.17254	-12.46
660.1862	3.54
660.19985	-3.46
660.2135	-25.46
660.22714	-15.46
660.24079	-11.46
660.25443	-15.46
660.26807	-9.46
660.28171	7.54
660.29534	4.54
660.30898	-3.46
660.32261	-21.46
660.33623	-30.46
660.34986	-29.46
660.36348	2.54
660.3771	-0.46
660.39072	16.54
660.40433	-3.46
660.41795	-0.46
660.43156	-4.46
660.44517	10.54
660.45877	11.54
660.47237	-6.46
660.48598	-20.46
660.49957	-12.46
660.51317	-10.46
660.52676	-1.46
660.54035	13.54
660.55394	12.54
660.56753	4.54
660.58111	-1.46
660.59469	8.54
660.60827	-15.46
660.62185	4.54
660.63542	21.54
660.64899	6.54
660.66256	17.54
660.67613	-0.46
660.68969	-0.46
660.70325	13.54
660.71681	4.54
660.73037	-13.46
660.74392	-4.46
660.75747	-8.46
660.77102	4.54
660.78457	-14.46
660.79811	11.54
660.81165	23.54
660.82519	4.54
660.83873	-1.46
660.85226	13.54
660.86579	16.54
660.87932	9.54
660.89285	-2.46
660.90637	21.54
660.9199	4.54
660.93342	2.54
660.94693	7.54
660.96045	-18.46
660.97396	-0.46
660.98747	11.54
661.00098	3.54
661.01448	-17.46
661.02798	0.54
661.04148	1.54
661.05498	13.54
661.06848	15.54
661.08197	-11.46
661.09546	17.54
661.10895	33.54
661.12243	-6.46
661.13591	-4.46
661.14939	-23.46
661.16287	-19.46
661.17635	2.54
661.18982	6.54
661.20329	30.54
661.21676	29.54
661.23022	-1.46
661.24369	-1.46
661.25715	2.54
661.27061	-2.46
661.28406	20.54
661.29752	-26.46
661.31097	-19.46
661.32441	15.54
661.33786	2.54
661.3513	-8.46
661.36474	-7.46
661.37818	-8.46
661.39162	-16.46
661.40505	54.54
661.41848	167.54
661.43191	10.54
661.44534	-6.46
661.45876	-5.46
661.47218	-0.46
661.4856	9.54
661.49902	16.54
661.51243	-11.46
661.52585	20.54
661.53925	5.54
661.55266	-0.46
661.56606	-15.46
661.57947	-2.46
661.59287	-16.46
661.60626	-17.46
661.61966	0.54
661.63305	6.54
661.64644	9.54
661.65983	-12.46
661.67321	-0.46
661.68659	10.54
661.69997	21.54
661.71335	2.54
661.72672	29.54
661.7401	67.54
661.75347	1.54
661.76683	-15.46
661.7802	13.54
661.79356	19.54
661.80692	-3.46
661.82028	5.54
661.83363	-10.46
661.84698	-25.46
661.86033	-2.46
661.87368	-1.46
661.88703	0.54
661.90037	1.54
661.91371	-2.46
661.92705	-13.46
661.94038	-15.46
661.95372	-10.46
661.96705	9.54
661.98038	32.54
661.9937	6.54
662.00702	-7.46
662.02034	-1.46
662.03366	-4.46
662.04698	-2.46
662.06029	-2.46
662.0736	-11.46
662.08691	-20.46
662.10022	2.54
662.11352	15.54
662.12682	1.54
662.14012	-12.46
662.15342	-10.46
662.16671	4.54
662.18	-18.46
662.19329	-19.46
662.20658	-10.46
662.21986	-3.46
662.23314	-5.46
662.24642	-12.46
662.2597	16.54
662.27297	-5.46
662.28624	-13.46
662.29951	7.54
662.31278	-3.46
662.32604	-17.46
662.3393	-11.46
662.35256	-5.46
662.36582	-20.46
662.37907	-19.46
662.39233	-23.46
662.40558	-9.46
662.41882	5.54
662.43207	4.54
662.44531	-1.46
662.45855	-10.46
662.47179	-19.46
662.48502	-12.46
662.49825	-4.46
662.51148	6.54
662.52471	2.54
662.53794	-10.46
662.55116	12.54
662.56438	-0.46
662.5776	-5.46
662.59081	13.54
662.60402	9.54
662.61723	0.54
662.63044	8.54
662.64365	-9.46
662.65685	-6.46
662.67005	10.54
662.68325	19.54
662.69644	-8.46
662.70964	13.54
662.72283	17.54
662.73601	12.54
662.7492	8.54
662.76238	3.54
662.77556	-0.46
662.78874	12.54
662.80192	4.54
662.81509	8.54
662.82826	-6.46
662.84143	-23.46
662.8546	-18.46
662.86776	-4.46
662.88092	-17.46
662.89408	-11.46
662.90724	2.54
662.92039	17.54
662.93354	-4.46
662.94669	-6.46
662.95984	0.54
662.97298	-11.46
662.98612	-21.46
662.99926	-20.46
663.0124	-4.46
663.02553	-3.46
663.03866	4.54
663.05179	-1.46
663.06492	7.54
663.07804	9.54
663.09116	16.54
663.10428	-8.46
663.1174	-0.46
663.13052	-10.46
663.14363	-13.46
663.15674	-20.46
663.16984	-11.46
663.18295	10.54
663.19605	16.54
663.20915	8.54
663.22225	6.54
663.23534	8.54
663.24843	-4.46
663.26152	-18.46
663.27461	-7.46
663.2877	0.54
663.30078	-5.46
663.31386	5.54
663.32694	7.54
663.34001	24.54
663.35308	19.54
663.36615	-5.46
663.37922	16.54
663.39229	17.54
663.40535	-36.46
663.41841	-11.46
663.43147	-5.46
663.44452	-14.46
663.45758	-6.46
663.47063	-3.46
663.48368	-2.46
663.49672	-7.46
663.50977	-38.46
663.52281	-25.46
663.53584	-17.46
663.54888	-19.46
663.56191	-13.46
663.57494	-4.46
663.58797	-22.46
663.601	-12.46
663.61402	-9.46
663.62704	5.54
663.64006	6.54
663.65308	-6.46
663.66609	-21.46
663.6791	-31.46
663.69211	16.54
663.70512	27.54
663.71812	-14.46
663.73112	-16.46
663.74412	-2.46
663.75712	4.54
663.77011	8.54
663.78311	-2.46
663.79609	7.54
663.80908	-3.46
663.82207	-1.46
663.83505	-22.46
663.84803	-16.46
663.861	-1.46
663.87398	6.54
663.88695	10.54
663.89992	-3.46
663.91289	-19.46
663.92585	8.54
663.93881	-18.46
663.95177	-4.46
663.96473	27.54
663.97769	-0.46
663.99064	-17.46
664.00359	-16.46
664.01654	5.54
664.02948	-2.46
664.04242	-8.46
664.05536	-14.46
664.0683	-2.46
664.08124	9.54
664.09417	30.54
664.1071	39.54
664.12003	12.54
664.13295	-16.46
664.14588	-13.46
664.1588	-17.46
664.17171	-15.46
664.18463	0.54
664.19754	-8.46
664.21045	6.54
664.22336	-3.46
664.23627	3.54
664.24917	4.54
664.26207	-6.46
664.27497	-9.46
664.28787	7.54
664.30076	15.54
664.31365	1.54
664.32654	5.54
664.33942	-11.46
664.35231	-8.46
664.36519	-18.46
664.37807	-14.46
664.39094	5.54
664.40382	23.54
664.41669	5.54
664.42956	5.54
664.44242	3.54
664.45529	-14.46
664.46815	-8.46
664.48101	3.54
664.49387	19.54
664.50672	-15.46
664.51957	-16.46
664.53242	-1.46
664.54527	-8.46
664.55811	-6.46
664.57095	-2.46
664.58379	3.54
664.59663	-20.46
664.60946	-14.46
664.6223	-3.46
664.63513	-10.46
664.64795	4.54
664.66078	4.54
664.6736	2.54
664.68642	-4.46
664.69924	-1.46
664.71205	3.54
664.72486	4.54
664.73767	4.54
664.75048	20.54
664.76329	3.54
664.77609	2.54
664.78889	19.54
664.80169	3.54
664.81448	-8.46
664.82728	-11.46
664.84007	-6.46
664.85285	-16.46
664.86564	10.54
664.87842	-11.46
664.8912	-12.46
664.90398	11.54
664.91676	4.54
664.92953	-1.46
664.9423	20.54
664.95507	9.54
664.96783	11.54
664.9806	-2.46
664.99336	-18.46
665.00612	-7.46
665.01887	13.54
665.03163	6.54
665.04438	1.54
665.05713	16.54
665.06987	1.54
665.08262	-29.46
665.09536	-8.46
665.1081	-1.46
665.12083	-2.46
665.13357	-4.46
665.1463	20.54
665.15903	4.54
665.17175	-2.46
665.18448	-16.46
665.1972	-8.46
665.20992	-6.46
665.22263	-3.46
665.23535	16.54
665.24806	79.54
665.26077	9.54
665.27348	-5.46
665.28618	13.54
665.29888	11.54
665.31158	2.54
665.32428	18.54
665.33697	17.54
665.34967	1.54
665.36236	-2.46
665.37504	-7.46
665.38773	7.54
665.40041	9.54
665.41309	4.54
665.42577	10.54
665.43844	-18.46
665.45111	-2.46
665.46378	1.54
665.47645	-0.46
665.48912	2.54
665.50178	-1.46
665.51444	-1.46
665.5271	21.54
665.53975	-3.46
665.55241	-15.46
665.56506	-4.46
665.5777	0.54
665.59035	8.54
665.60299	21.54
665.61563	3.54
665.62827	6.54
665.64091	0.54
665.65354	-14.46
665.66617	-12.46
665.6788	17.54
665.69142	18.54
665.70405	11.54
665.71667	-25.46
665.72929	-16.46
665.7419	-0.46
665.75452	-19.46
665.76713	-19.46
665.77974	-12.46
665.79234	24.54
665.80495	20.54
665.81755	7.54
665.83015	-11.46
665.84274	6.54
665.85534	-20.46
665.86793	-15.46
665.88052	-8.46
665.8931	1.54
665.90569	-12.46
665.91827	-11.46
665.93085	-24.46
665.94343	10.54
665.956	-2.46
665.96857	-12.46
665.98114	-13.46
665.99371	-49.46
666.00627	-47.46
666.01883	-20.46
666.03139	5.54
666.04395	7.54
666.05651	30.54
666.06906	17.54
666.08161	-0.46
666.09415	4.54
666.1067	-1.46
666.11924	5.54
666.13178	-7.46
666.14432	3.54
666.15685	-0.46
666.16939	2.54
666.18192	-2.46
666.19444	-11.46
666.20697	16.54
666.21949	17.54
666.23201	19.54
666.24453	-0.46
666.25705	19.54
666.26956	-8.46
666.28207	-0.46
666.29458	-4.46
666.30708	-19.46
666.31959	2.54
666.33209	11.54
666.34458	1.54
666.35708	2.54
666.36957	14.54
666.38206	6.54
666.39455	15.54
666.40704	0.54
666.41952	3.54
666.432	13.54
666.44448	6.54
666.45696	-6.46
666.46943	-0.46
666.4819	0.54
666.49437	5.54
666.50684	8.54
666.5193	-23.46
666.53176	-39.46
666.54422	-14.46
666.55668	15.54
666.56913	-10.46
666.58158	-5.46
666.59403	5.54
666.60648	-0.46
666.61892	-6.46
666.63136	11.54
666.6438	17.54
666.65624	12.54
666.66867	1.54
666.68111	2.54
666.69354	0.54
666.70596	13.54
666.71839	-9.46
666.73081	-7.46
666.74323	-1.46
666.75565	19.54
666.76806	12.54
666.78047	-6.46
666.79288	-4.46
666.80529	3.54
666.81769	-0.46
666.8301	-2.46
666.8425	-18.46
666.85489	-18.46
666.86729	-4.46
666.87968	-16.46
666.89207	2.54
666.90446	31.54
666.91684	14.54
666.92923	2.54
666.94161	7.54
666.95399	24.54
666.96636	2.54
666.97873	11.54
666.9911	-29.46
667.00347	-2.46
667.01584	5.54
667.0282	-0.46
667.04056	-5.46
667.05292	-0.46
667.06528	1.54
667.07763	-11.46
667.08998	-7.46
667.10233	7.54
667.11467	-11.46
667.12702	-13.46
667.13936	-2.46
667.1517	23.54
667.16403	0.54
667.17637	-3.46
667.1887	-4.46
667.20103	-11.46
667.21335	-25.46
667.22568	-7.46
667.238	12.54
667.25032	13.54
667.26263	23.54
667.27495	3.54
667.28726	30.54
667.29957	120.54
667.31188	387.54
667.32418	983.54
667.33648	1729.54
667.34878	2283.54
667.36108	2148.54
667.37337	1456.54
667.38566	1006.54
667.39795	749.54
667.41024	535.54
667.42252	437.54
667.43481	338.54
667.44709	214.54
667.45936	149.54
667.47164	100.54
667.48391	74.54
667.49618	32.54
667.50845	4.54
667.52071	30.54
667.53297	20.54
667.54523	10.54
667.55749	-10.46
667.56975	3.54
667.582	13.54
667.59425	20.54
667.6065	36.54
667.61874	11.54
667.63099	32.54
667.64323	33.54
667.65546	-18.46
667.6677	3.54
667.67993	19.54
667.69216	8.54
667.70439	-6.46
667.71662	0.54
667.72884	3.54
667.74106	1.54
667.75328	1.54
667.76549	-7.46
667.77771	-0.46
667.78992	13.54
667.80213	19.54
667.81433	-2.46
667.82654	-1.46
667.83874	9.54
667.85094	-8.46
667.86313	-6.46
667.87533	-16.46
667.88752	-0.46
667.89971	0.54
667.91189	-3.46
667.92408	-5.46
667.93626	1.54
667.94844	5.54
667.96061	5.54
667.97279	-17.46
667.98496	-11.46
667.99713	1.54
668.0093	-0.46
668.02146	14.54
668.03362	8.54
668.04578	0.54
668.05794	-22.46
668.07009	-13.46
668.08224	-1.46
668.09439	43.54
668.10654	30.54
668.11868	15.54
668.13083	0.54
668.14297	-4.46
668.1551	5.54
668.16724	16.54
668.17937	19.54
668.1915	-7.46
668.20363	-5.46
668.21575	-3.46
668.22788	-15.46
668.24	4.54
668.25211	10.54
668.26423	11.54
668.27634	-20.46
668.28845	-7.46
668.30056	-2.46
668.31266	-0.46
668.32477	-3.46
668.33687	-21.46
668.34897	-15.46
668.36106	-5.46
668.37315	6.54
668.38524	0.54
668.39733	-8.46
668.40942	-23.46
668.4215	-4.46
668.43358	-3.46
668.44566	-0.46
668.45774	-7.46
668.46981	-14.46
668.48188	-11.46
668.49395	-3.46
668.50602	6.54
668.51808	5.54
668.53014	9.54
668.5422	15.54
668.55425	-0.46
668.56631	7.54
668.57836	5.54
668.59041	23.54
668.60246	4.54
668.6145	-11.46
668.62654	-20.46
668.63858	-3.46
668.65062	-0.46
668.66265	8.54
668.67468	-12.46
668.68671	-12.46
668.69874	29.54
668.71076	0.54
668.72278	-11.46
668.7348	1.54
668.74682	-3.46
668.75883	-16.46
668.77085	-22.46
668.78286	-12.46
668.79486	3.54
668.80687	7.54
668.81887	-2.46
668.83087	-1.46
668.84287	-13.46
668.85486	20.54
668.86685	0.54
668.87884	-8.46
668.89083	16.54
668.90282	18.54
668.9148	-9.46
668.92678	-3.46
668.93876	-2.46
668.95073	-5.46
668.9627	-1.46
668.97468	-6.46
668.98664	14.54
668.99861	19.54
669.01057	9.54
669.02253	-0.46
669.03449	23.54
669.04645	5.54
669.0584	1.54
669.07035	0.54
669.0823	-4.46
669.09424	-19.46
669.10619	-22.46
669.11813	-6.46
669.13007	3.54
669.142	5.54
669.15393	15.54
669.16587	6.54
669.17779	-3.46
669.18972	-23.46
669.20164	-19.46
669.21356	-11.46
669.22548	-7.46
669.2374	-3.46
669.24931	-13.46
669.26123	-18.46
669.27313	-2.46
669.28504	-2.46
669.29694	-17.46
669.30885	-4.46
669.32074	-8.46
669.33264	3.54
669.34454	9.54
669.35643	-15.46
669.36832	-27.46
669.3802	2.54
669.39209	-12.46
669.40397	-4.46
669.41585	-11.46
669.42773	-25.46
669.4396	-33.46
669.45147	-35.46
669.46334	-11.46
669.47521	-0.46
669.48707	-18.46
669.49894	-18.46
669.5108	-4.46
669.52265	-5.46
669.53451	7.54
669.54636	-13.46
669.55821	11.54
669.57006	-14.46
669.5819	-26.46
669.59375	-6.46
669.60559	-6.46
669.61742	-14.46
669.62926	-7.46
669.64109	-5.46
669.65292	8.54
669.66475	-2.46
669.67658	-6.46
669.6884	-4.46
669.70022	4.54
669.71204	31.54
669.72385	13.54
669.73567	-1.46
669.74748	-0.46
669.75928	-7.46
669.77109	-7.46
669.78289	-1.46
669.79469	-1.46
669.80649	-8.46
669.81829	-16.46
669.83008	-11.46
669.84187	-11.46
669.85366	-4.46
669.86545	-9.46
669.87723	2.54
669.88901	13.54
669.90079	16.54
669.91257	5.54
669.92434	22.54
669.93611	20.54
669.94788	23.54
669.95965	3.54
669.97141	-11.46
669.98317	-10.46
669.99493	-9.46
670.00669	-0.46
670.01844	-7.46
670.0302	11.54
670.04194	0.54
670.05369	5.54
670.06544	-19.46
670.07718	-5.46
670.08892	-0.46
670.10065	-4.46
670.11239	-1.46
670.12412	3.54
670.13585	1.54
670.14758	-13.46
670.1593	-6.46
670.17103	11.54
670.18275	26.54
670.19446	-4.46
670.20618	1.54
670.21789	1.54
670.2296	0.54
670.24131	0.54
670.25301	14.54
670.26472	21.54
670.27642	18.54
670.28811	1.54
670.29981	-2.46
670.3115	-8.46
670.32319	-20.46
670.33488	-25.46
670.34656	-23.46
670.35825	8.54
670.36993	25.54
670.38161	-13.46
670.39328	-13.46
670.40496	-9.46
670.41663	-22.46
670.42829	-13.46
670.43996	-4.46
670.45162	-3.46
670.46328	-9.46
670.47494	-10.46
670.4866	-13.46
670.49825	-0.46
670.5099	-0.46
670.52155	-3.46
670.5332	6.54
670.54484	-4.46
670.55648	-11.46
670.56812	14.54
670.57976	-24.46
670.59139	-26.46
670.60302	-11.46
670.61465	1.54
670.62628	-4.46
670.6379	-10.46
670.64952	-2.46
670.66114	-12.46
670.67276	-24.46
670.68438	-15.46
670.69599	12.54
670.7076	-2.46
670.7192	12.54
670.73081	24.54
670.74241	14.54
670.75401	-7.46
670.76561	7.54
670.7772	11.54
670.78879	-7.46
670.80038	-12.46
670.81197	-20.46
670.82355	5.54
670.83514	11.54
670.84672	-16.46
670.85829	-6.46
670.86987	-17.46
670.88144	-22.46
670.89301	-23.46
670.90458	-15.46
670.91614	-20.46
670.92771	-7.46
670.93927	2.54
670.95083	13.54
670.96238	-4.46
670.97393	-19.46
670.98548	-18.46
670.99703	-14.46
671.00858	-20.46
671.02012	-7.46
671.03166	-17.46
671.0432	-9.46
671.05473	0.54
671.06627	4.54
671.0778	9.54
671.08933	3.54
671.10085	4.54
671.11238	10.54
671.1239	9.54
671.13542	21.54
671.14693	16.54
671.15845	-4.46
671.16996	15.54
671.18147	43.54
671.19297	126.54
671.20448	346.54
671.21598	667.54
671.22748	1063.54
671.23897	1312.54
671.25047	1124.54
671.26196	753.54
671.27345	515.54
671.28493	356.54
671.29642	245.54
671.3079	186.54
671.31938	131.54
671.33085	82.54
671.34233	68.54
671.3538	47.54
671.36527	23.54
671.37674	-5.46
671.3882	-4.46
671.39966	-6.46
671.41112	-6.46
671.42258	-8.46
671.43404	16.54
671.44549	16.54
671.45694	4.54
671.46838	14.54
671.47983	11.54
671.49127	-1.46
671.50271	26.54
671.51415	5.54
671.52558	-4.46
671.53702	2.54
671.54845	15.54
671.55987	4.54
671.5713	-0.46
671.58272	-1.46
671.59414	10.54
671.60556	26.54
671.61698	15.54
671.62839	-19.46
671.6398	-16.46
671.65121	-6.46
671.66261	-24.46
671.67402	-22.46
671.68542	-16.46
671.69681	-15.46
671.70821	-6.46
671.7196	-15.46
671.73099	-10.46
671.74238	-3.46
671.75377	-0.46
671.76515	-1.46
671.77653	-16.46
671.78791	-12.46
671.79929	18.54
671.81066	0.54
671.82203	11.54
671.8334	-10.46
671.84477	-11.46
671.85613	-3.46
671.86749	-0.46
671.87885	24.54
671.89021	35.54
671.90156	-3.46
671.91291	-18.46
671.92426	-29.46
671.93561	-24.46
671.94695	-16.46
671.9583	-28.46
671.96963	-4.46
671.98097	-0.46
671.99231	-1.46
672.00364	-25.46
672.01497	6.54
672.02629	2.54
672.03762	-13.46
672.04894	-3.46
672.06026	-24.46
672.07158	-38.46
672.08289	-18.46
672.0942	-22.46
672.10551	14.54
672.11682	33.54
672.12813	4.54
672.13943	-7.46
672.15073	-17.46
672.16203	-4.46
672.17332	-8.46
672.18461	-7.46
672.1959	3.54
672.20719	8.54
672.21848	16.54
672.22976	24.54
672.24104	9.54
672.25232	0.54
672.26359	-12.46
672.27487	-12.46
672.28614	2.54
672.29741	0.54
672.30867	-4.46
672.31993	-12.46
672.33119	2.54
672.34245	5.54
672.35371	-17.46
672.36496	-11.46
672.37621	-13.46
672.38746	-21.46
672.39871	-14.46
672.40995	-22.46
672.42119	-2.46
672.43243	19.54
672.44367	5.54
672.4549	-5.46
672.46613	6.54
672.47736	4.54
672.48859	3.54
672.49981	-12.46
672.51103	-9.46
672.52225	-0.46
672.53347	-19.46
672.54468	-11.46
672.55589	10.54
672.5671	5.54
672.57831	-1.46
672.58951	12.54
672.60072	-13.46
672.61191	-26.46
672.62311	-13.46
672.63431	-18.46
672.6455	-4.46
672.65669	-1.46
672.66787	-15.46
672.67906	-14.46
672.69024	-17.46
672.70142	-24.46
672.7126	-22.46
672.72377	-29.46
672.73494	-19.46
672.74611	-7.46
672.75728	-6.46
672.76845	-13.46
672.77961	-7.46
672.79077	-10.46
672.80193	-21.46
672.81308	-0.46
672.82423	2.54
672.83539	8.54
672.84653	-0.46
672.85768	-9.46
672.86882	-3.46
672.87996	3.54
672.8911	-12.46
672.90223	5.54
672.91337	-9.46
672.9245	-19.46
672.93563	-3.46
672.94675	-1.46
672.95788	6.54
672.969	-15.46
672.98011	-7.46
672.99123	-4.46
673.00234	-8.46
673.01345	-8.46
673.02456	-18.46
673.03567	-19.46
673.04677	-8.46
673.05787	-21.46
673.06897	-23.46
673.08007	-9.46
673.09116	-9.46
673.10225	-21.46
673.11334	-9.46
673.12443	3.54
673.13551	27.54
673.14659	-2.46
673.15767	-9.46
673.16875	0.54
673.17982	-3.46
673.1909	-11.46
673.20196	-13.46
673.21303	-15.46
673.2241	-0.46
673.23516	2.54
673.24622	-12.46
673.25727	3.54
673.26833	-8.46
673.27938	8.54
673.29043	11.54
673.30148	13.54
673.31252	4.54
673.32356	1.54
673.3346	-24.46
673.34564	-11.46
673.35668	-9.46
673.36771	-22.46
673.37874	-5.46
673.38977	5.54
673.40079	3.54
673.41181	-12.46
673.42283	-28.46
673.43385	-20.46
673.44487	16.54
673.45588	-5.46
673.46689	-32.46
673.4779	6.54
673.4889	15.54
673.4999	12.54
673.51091	3.54
673.5219	8.54
673.5329	11.54
673.54389	2.54
673.55488	-1.46
673.56587	-5.46
673.57686	8.54
673.58784	0.54
673.59882	2.54
673.6098	-2.46
673.62077	14.54
673.63175	31.54
673.64272	0.54
673.65369	-15.46
673.66465	-9.46
673.67562	-9.46
673.68658	-2.46
673.69754	-26.46
673.70849	-1.46
673.71945	3.54
673.7304	7.54
673.74135	36.54
673.75229	18.54
673.76324	24.54
673.77418	-3.46
673.78512	-5.46
673.79605	-1.46
673.80699	4.54
673.81792	-2.46
673.82885	6.54
673.83978	26.54
673.8507	2.54
673.86162	-20.46
673.87254	-18.46
673.88346	-8.46
673.89437	-4.46
673.90529	-0.46
673.9162	6.54
673.9271	-6.46
673.93801	1.54
673.94891	-9.46
673.95981	-18.46
673.97071	-4.46
673.9816	-1.46
673.99249	-7.46
674.00338	-0.46
674.01427	-6.46
674.02516	-11.46
674.03604	-17.46
674.04692	-9.46
674.0578	1.54
674.06867	1.54
674.07954	-2.46
674.09042	17.54
674.10128	-14.46
674.11215	-35.46
674.12301	-23.46
674.13387	-6.46
674.14473	1.54
674.15559	-2.46
674.16644	6.54
674.17729	-11.46
674.18814	-11.46
674.19898	2.54
674.20983	-23.46
674.22067	-31.46
674.23151	-12.46
674.24234	-19.46
674.25318	0.54
674.26401	15.54
674.27483	1.54
674.28566	-17.46
674.29648	-22.46
674.30731	-22.46
674.31812	-8.46
674.32894	-10.46
674.33975	-5.46
674.35057	-5.46
674.36137	1.54
674.37218	13.54
674.38299	-19.46
674.39379	-14.46
674.40459	8.54
674.41538	11.54
674.42618	-18.46
674.43697	-14.46
674.44776	-10.46
674.45854	3.54
674.46933	12.54
674.48011	-4.46
674.49089	-11.46
674.50167	0.54
674.51244	-32.46
674.52321	-41.46
674.53398	-42.46
674.54475	-31.46
674.55552	-16.46
674.56628	-19.46
674.57704	-12.46
674.5878	-15.46
674.59855	-3.46
674.6093	0.54
674.62005	1.54
674.6308	-4.46
674.64155	-8.46
674.65229	-10.46
674.66303	-12.46
674.67377	0.54
674.6845	15.54
674.69523	24.54
674.70596	7.54
674.71669	-15.46
674.72742	-21.46
674.73814	-28.46
674.74886	-31.46
674.75958	-31.46
674.77029	-7.46
674.78101	-29.46
674.79172	-8.46
674.80243	-9.46
674.81313	3.54
674.82384	12.54
674.83454	-10.46
674.84524	-23.46
674.85593	-11.46
674.86663	-17.46
674.87732	-21.46
674.888	-8.46
674.89869	-14.46
674.90937	-3.46
674.92006	9.54
674.93073	12.54
674.94141	-5.46
674.95208	-3.46
674.96276	27.54
674.97343	11.54
674.98409	4.54
674.99476	11.54
675.00542	-12.46
675.01608	-5.46
675.02673	-12.46
675.03739	-5.46
675.04804	-3.46
675.05869	-2.46
675.06934	4.54
675.07998	8.54
675.09062	-23.46
675.10126	-36.46
675.1119	-14.46
675.12253	8.54
675.13317	10.54
675.1438	0.54
675.15442	-14.46
675.16505	-15.46
675.17567	3.54
675.18629	5.54
675.19691	6.54
675.20752	2.54
675.21813	-0.46
675.22874	-21.46
675.23935	-2.46
675.24996	0.54
675.26056	8.54
675.27116	4.54
675.28176	-6.46
675.29235	-9.46
675.30295	-2.46
675.31354	-5.46
675.32412	-4.46
675.33471	-21.46
675.34529	-20.46
675.35587	-13.46
675.36645	-29.46
675.37703	-35.46
675.3876	-22.46
675.39817	-3.46
675.40874	-4.46
675.41931	-4.46
675.42987	4.54
675.44043	12.54
675.45099	-1.46
675.46154	-0.46
675.4721	-11.46
675.48265	-3.46
675.4932	10.54
675.50374	14.54
675.51429	-7.46
675.52483	6.54
675.53537	-14.46
675.5459	-7.46
675.55644	10.54
675.56697	-2.46
675.5775	-7.46
675.58803	-6.46
675.59855	7.54
675.60907	-10.46
675.61959	-22.46
675.63011	-19.46
675.64062	-17.46
675.65113	-15.46
675.66164	2.54
675.67215	-10.46
675.68265	-9.46
675.69316	-14.46
675.70366	-8.46
675.71415	15.54
675.72465	35.54
675.73514	17.54
675.74563	16.54
675.75612	-13.46
675.7666	-4.46
675.77708	-6.46
675.78756	-11.46
675.79804	-16.46
675.80852	17.54
675.81899	24.54
675.82946	-0.46
675.83993	-9.46
675.85039	5.54
675.86085	5.54
675.87131	18.54
675.88177	11.54
675.89223	2.54
675.90268	9.54
675.91313	-4.46
675.92358	4.54
675.93402	-4.46
675.94447	-7.46
675.95491	-2.46
675.96535	-6.46
675.97578	-0.46
675.98622	6.54
675.99665	-5.46
676.00707	-11.46
676.0175	13.54
676.02792	-2.46
676.03835	0.54
676.04876	-7.46
676.05918	-9.46
676.06959	1.54
676.08	16.54
676.09041	15.54
676.10082	-10.46
676.11122	-2.46
676.12162	58.54
676.13202	107.54
676.14242	11.54
676.15281	-12.46
676.16321	-24.46
676.17359	-8.46
676.18398	-9.46
676.19437	-11.46
676.20475	-14.46
676.21513	-9.46
676.2255	-2.46
676.23588	20.54
676.24625	5.54
676.25662	-5.46
676.26699	-23.46
676.27735	-11.46
676.28771	21.54
676.29807	5.54
676.30843	-2.46
676.31878	-3.46
676.32914	-3.46
676.33949	-0.46
676.34983	8.54
676.36018	-13.46
676.37052	-11.46
676.38086	-8.46
676.3912	-17.46
676.40153	4.54
676.41187	19.54
676.4222	0.54
676.43252	-1.46
676.44285	26.54
676.45317	0.54
676.46349	-14.46
676.47381	-5.46
676.48413	17.54
676.49444	-0.46
676.50475	-1.46
676.51506	-4.46
676.52536	0.54
676.53567	-5.46
676.54597	13.54
676.55626	15.54
676.56656	-14.46
676.57685	-20.46
676.58714	-6.46
676.59743	0.54
676.60772	-4.46
676.618	-14.46
676.62828	-21.46
676.63856	-24.46
676.64884	-20.46
676.65911	-14.46
676.66938	-16.46
676.67965	-6.46
676.68992	7.54
676.70018	1.54
676.71044	-0.46
676.7207	27.54
676.73096	17.54
676.74121	17.54
676.75146	7.54
676.76171	16.54
676.77196	-11.46
676.7822	-27.46
676.79245	-7.46
676.80269	21.54
676.81292	-11.46
676.82316	-19.46
676.83339	10.54
676.84362	26.54
676.85385	-2.46
676.86407	12.54
676.87429	-5.46
676.88451	0.54
676.89473	5.54
676.90494	-29.46
676.91516	-27.46
676.92537	-18.46
676.93557	-2.46
676.94578	-7.46
676.95598	-10.46
676.96618	-8.46
676.97638	-16.46
676.98657	-27.46
676.99677	-25.46
677.00696	3.54
677.01714	15.54
677.02733	-1.46
677.03751	-5.46
677.04769	-5.46
677.05787	-1.46
677.06805	-2.46
677.07822	-9.46
677.08839	-1.46
677.09856	-11.46
677.10872	0.54
677.11889	-3.46
677.12905	15.54
677.13921	14.54
677.14936	-7.46
677.15951	-18.46
677.16967	-7.46
677.17981	4.54
677.18996	1.54
677.2001	-31.46
677.21025	-43.46
677.22038	-6.46
677.23052	3.54
677.24065	-11.46
677.25078	-0.46
677.26091	1.54
677.27104	-0.46
677.28116	-12.46
677.29129	0.54
677.3014	17.54
677.31152	31.54
677.32164	83.54
677.33175	-17.46
677.34186	-16.46
677.35196	3.54
677.36207	20.54
677.37217	31.54
677.38227	15.54
677.39236	9.54
677.40246	-7.46
677.41255	-13.46
677.42264	-3.46
677.43273	-6.46
677.44281	-10.46
677.45289	8.54
677.46297	-15.46
677.47305	-18.46
677.48313	-13.46
677.4932	-6.46
677.50327	-10.46
677.51334	-12.46
677.5234	-15.46
677.53346	4.54
677.54352	5.54
677.55358	-6.46
677.56364	3.54
677.57369	22.54
677.58374	2.54
677.59379	-14.46
677.60383	-7.46
677.61388	0.54
677.62392	-7.46
677.63395	-5.46
677.64399	0.54
677.65402	15.54
677.66405	4.54
677.67408	2.54
677.68411	-1.46
677.69413	-1.46
677.70415	5.54
677.71417	-10.46
677.72419	-31.46
677.7342	-11.46
677.74421	-19.46
677.75422	-16.46
677.76422	3.54
677.77423	1.54
677.78423	16.54
677.79423	-4.46
677.80422	9.54
677.81422	5.54
677.82421	-17.46
677.8342	-1.46
677.84418	-7.46
677.85417	7.54
677.86415	28.54
677.87413	2.54
677.88411	-5.46
677.89408	9.54
677.90405	12.54
677.91402	-5.46
677.92399	3.54
677.93395	27.54
677.94391	14.54
677.95387	11.54
677.96383	4.54
677.97378	-6.46
677.98374	-3.46
677.99369	-20.46
678.00363	-2.46
678.01358	0.54
678.02352	-2.46
678.03346	-6.46
678.0434	-15.46
678.05333	-10.46
678.06326	-5.46
678.07319	-11.46
678.08312	-20.46
678.09305	5.54
678.10297	-5.46
678.11289	-10.46
678.12281	3.54
678.13272	-2.46
678.14264	-24.46
678.15255	-12.46
678.16245	-7.46
678.17236	-6.46
678.18226	-0.46
678.19216	5.54
678.20206	-10.46
678.21196	-6.46
678.22185	14.54
678.23174	5.54
678.24163	3.54
678.25151	1.54
678.2614	13.54
678.27128	16.54
678.28116	5.54
678.29103	15.54
678.30091	-1.46
678.31078	-20.46
678.32065	-2.46
678.33051	-1.46
678.34037	-7.46
678.35024	-22.46
678.36009	-15.46
678.36995	-6.46
678.37981	-0.46
678.38966	-19.46
678.39951	-4.46
678.40935	-6.46
678.4192	-8.46
678.42904	-17.46
678.43888	-1.46
678.44871	6.54
678.45855	6.54
678.46838	-5.46
678.47821	-17.46
678.48804	-11.46
678.49786	30.54
678.50768	25.54
678.5175	4.54
678.52732	9.54
678.53713	-1.46
678.54694	-6.46
678.55675	-21.46
678.56656	-7.46
678.57637	-22.46
678.58617	-19.46
678.59597	-2.46
678.60577	5.54
678.61556	-13.46
678.62535	-6.46
678.63514	17.54
678.64493	11.54
678.65472	-0.46
678.6645	7.54
678.67428	5.54
678.68406	12.54
678.69383	2.54
678.7036	-8.46
678.71337	-1.46
678.72314	14.54
678.73291	13.54
678.74267	-1.46
678.75243	-18.46
678.76219	-9.46
678.77195	0.54
678.7817	-0.46
678.79145	-3.46
678.8012	6.54
678.81094	-14.46
678.82069	-23.46
678.83043	43.54
678.84017	113.54
678.8499	3.54
678.85964	4.54
678.86937	0.54
678.87909	17.54
678.88882	8.54
678.89854	3.54
678.90827	-2.46
678.91798	-5.46
678.9277	-1.46
678.93742	-17.46
678.94713	-13.46
678.95684	-4.46
678.96654	13.54
678.97625	8.54
678.98595	8.54
678.99565	-15.46
679.00534	-11.46
679.01504	-10.46
679.02473	3.54
679.03442	-7.46
679.04411	1.54
679.05379	-19.46
679.06347	-20.46
679.07315	-11.46
679.08283	-8.46
679.0925	-14.46
679.10218	-3.46
679.11185	-7.46
679.12151	-6.46
679.13118	6.54
679.14084	-7.46
679.1505	-13.46
679.16016	-14.46
679.16981	-13.46
679.17946	9.54
679.18911	10.54
679.19876	-31.46
679.20841	-10.46
679.21805	5.54
679.22769	4.54
679.23733	9.54
679.24696	8.54
679.2566	-7.46
679.26623	13.54
679.27585	7.54
679.28548	-18.46
679.2951	-22.46
679.30472	-28.46
679.31434	-13.46
679.32396	-2.46
679.33357	-19.46
679.34318	17.54
679.35279	33.54
679.3624	-3.46
679.372	-2.46
679.3816	3.54
679.3912	1.54
679.40079	31.54
679.41039	17.54
679.41998	-1.46
679.42957	-10.46
679.43915	-22.46
679.44874	-6.46
679.45832	27.54
679.4679	-6.46
679.47747	-19.46
679.48705	-25.46
679.49662	0.54
679.50619	10.54
679.51575	-7.46
679.52532	-10.46
679.53488	20.54
679.54444	4.54
679.554	-6.46
679.56355	0.54
679.5731	11.54
679.58265	-9.46
679.5922	-3.46
679.60174	-1.46
679.61129	11.54
679.62083	-4.46
679.63036	-24.46
679.6399	-11.46
679.64943	25.54
679.65896	10.54
679.66849	-14.46
679.67801	-10.46
679.68753	-2.46
679.69705	32.54
679.70657	14.54
679.71609	12.54
679.7256	14.54
679.73511	15.54
679.74462	-3.46
679.75412	-8.46
679.76362	20.54
679.77312	16.54
679.78262	1.54
679.79212	1.54
679.80161	-3.46
679.8111	-14.46
679.82059	-3.46
679.83007	7.54
679.83956	13.54
679.84904	-5.46
679.85852	-1.46
679.86799	-9.46
679.87747	-0.46
679.88694	-6.46
679.8964	1.54
679.90587	-4.46
679.91533	5.54
679.92479	-1.46
679.93425	-4.46
679.94371	-6.46
679.95316	13.54
679.96261	5.54
679.97206	-10.46
679.98151	-13.46
679.99095	-20.46
680.00039	-16.46
680.00983	-20.46
680.01927	4.54
680.0287	-1.46
680.03814	16.54
680.04756	-12.46
680.05699	-22.46
680.06641	-0.46
680.07584	-3.46
680.08526	-15.46
680.09467	-2.46
680.10409	-20.46
680.1135	-29.46
680.12291	-13.46
680.13232	7.54
680.14172	28.54
680.15112	-0.46
680.16052	-7.46
680.16992	-1.46
680.17931	9.54
680.18871	11.54
680.1981	-16.46
680.20748	-23.46
680.21687	-23.46
