Data from HR4C25001_14-14-33-253.txt Node
Date: Mon Jun 15 14:14:33 CDT 2026
User: jam28248
Spectrometer: HR4C2500
Trigger mode: 4
Integration Time (sec): 7.500000E-2
Scans to average: 20
Electric dark correction enabled: true
Nonlinearity correction enabled: false
Boxcar width: 0
XAxis mode: Wavelengths
Number of Pixels in Spectrum: 3648
>>>>>Begin Spectral Data<<<<<
629.66646	-22.28
629.6848	-22.28
629.70313	-22.28
629.72147	-49.53
629.7398	-37.33
629.75812	-2.03
629.77645	-0.38
629.79477	7.42
629.81309	-0.13
629.83141	-5.63
629.84972	6.07
629.86803	1.42
629.88634	11.82
629.90465	-8.33
629.92295	-7.03
629.94126	-5.23
629.95956	0.47
629.97785	1.52
629.99615	-0.48
630.01444	17.77
630.03273	17.02
630.05102	16.97
630.0693	6.22
630.08759	14.22
630.10587	6.52
630.12415	2.02
630.14242	6.17
630.16069	-7.83
630.17896	-3.43
630.19723	5.97
630.2155	19.47
630.23376	62.42
630.25202	25.52
630.27028	16.52
630.28854	12.12
630.30679	4.32
630.32504	3.02
630.34329	5.22
630.36153	11.82
630.37978	17.87
630.39802	9.42
630.41626	6.62
630.43449	-2.48
630.45273	2.07
630.47096	10.87
630.48919	7.57
630.50741	13.07
630.52564	4.22
630.54386	10.42
630.56208	18.27
630.58029	7.92
630.59851	4.22
630.61672	6.72
630.63493	14.52
630.65313	7.12
630.67134	7.37
630.68954	3.82
630.70774	12.72
630.72594	17.37
630.74413	3.07
630.76232	-3.03
630.78051	-3.28
630.7987	3.92
630.81688	9.17
630.83507	16.07
630.85325	13.72
630.87142	6.02
630.8896	7.17
630.90777	0.72
630.92594	-7.03
630.94411	13.62
630.96227	21.47
630.98043	36.62
630.99859	13.52
631.01675	7.32
631.03491	2.02
631.05306	-3.53
631.07121	10.42
631.08936	11.87
631.1075	1.32
631.12564	6.47
631.14379	5.02
631.16192	12.62
631.18006	10.92
631.19819	8.47
631.21632	5.62
631.23445	-6.68
631.25258	-0.03
631.2707	5.97
631.28882	9.87
631.30694	9.62
631.32505	6.82
631.34317	13.22
631.36128	7.12
631.37939	14.77
631.39749	8.62
631.4156	6.52
631.4337	2.67
631.4518	3.52
631.46989	-7.08
631.48799	-2.28
631.50608	-1.83
631.52417	-6.83
631.54225	0.82
631.56034	0.92
631.57842	5.52
631.5965	3.17
631.61457	-11.23
631.63265	-3.08
631.65072	2.32
631.66879	-1.28
631.68685	10.62
631.70492	19.02
631.72298	13.72
631.74104	0.12
631.7591	1.57
631.77715	3.17
631.7952	13.37
631.81325	11.62
631.8313	1.22
631.84934	16.17
631.86739	19.07
631.88543	6.57
631.90346	11.57
631.9215	1.97
631.93953	5.62
631.95756	2.77
631.97559	7.27
631.99361	-3.88
632.01163	-5.73
632.02965	8.37
632.04767	17.87
632.06569	16.87
632.0837	8.07
632.10171	-0.88
632.11972	-6.03
632.13772	3.47
632.15573	16.92
632.17373	3.77
632.19172	-7.83
632.20972	-4.28
632.22771	-7.33
632.2457	2.52
632.26369	5.77
632.28168	15.22
632.29966	3.52
632.31764	9.17
632.33562	4.47
632.35359	7.22
632.37157	6.77
632.38954	8.12
632.40751	-1.53
632.42547	-5.18
632.44344	13.02
632.4614	7.17
632.47936	2.67
632.49731	1.22
632.51527	1.77
632.53322	8.87
632.55117	6.07
632.56911	3.42
632.58706	-1.38
632.605	-0.18
632.62294	3.02
632.64087	8.22
632.65881	-7.83
632.67674	4.02
632.69467	1.02
632.7126	4.02
632.73052	9.82
632.74844	6.47
632.76636	7.67
632.78428	11.92
632.80219	17.37
632.8201	23.52
632.83801	6.72
632.85592	3.82
632.87383	14.97
632.89173	2.57
632.90963	-3.08
632.92753	3.87
632.94542	5.72
632.96331	10.42
632.9812	7.87
632.99909	5.22
633.01697	1.47
633.03486	5.52
633.05274	0.17
633.07061	4.87
633.08849	6.92
633.10636	10.77
633.12423	15.02
633.1421	6.47
633.15997	21.62
633.17783	7.02
633.19569	9.47
633.21355	12.12
633.2314	13.27
633.24926	-4.03
633.26711	0.42
633.28495	6.12
633.3028	-1.43
633.32064	3.07
633.33848	12.57
633.35632	22.32
633.37416	15.67
633.39199	4.27
633.40982	-1.03
633.42765	7.62
633.44548	5.82
633.4633	-5.93
633.48112	-7.18
633.49894	-5.33
633.51676	3.97
633.53457	4.82
633.55238	9.22
633.57019	1.62
633.588	-4.93
633.6058	-5.13
633.6236	7.87
633.6414	8.42
633.6592	-2.38
633.67699	-3.38
633.69478	1.52
633.71257	14.67
633.73036	12.47
633.74815	-0.53
633.76593	-1.58
633.78371	6.87
633.80148	1.37
633.81926	0.52
633.83703	-2.28
633.8548	-16.18
633.87257	-12.83
633.89033	-6.68
633.90809	7.02
633.92585	5.82
633.94361	4.57
633.96137	3.97
633.97912	9.62
633.99687	-8.43
634.01462	6.97
634.03236	16.67
634.0501	14.27
634.06784	-3.73
634.08558	12.42
634.10332	12.17
634.12105	2.12
634.13878	14.52
634.15651	14.97
634.17423	6.02
634.19196	-1.58
634.20968	-0.78
634.22739	12.42
634.24511	14.92
634.26282	11.92
634.28053	17.82
634.29824	8.17
634.31595	10.27
634.33365	6.27
634.35135	-5.03
634.36905	-7.83
634.38675	5.82
634.40444	7.62
634.42213	-1.13
634.43982	3.27
634.4575	-3.53
634.47519	12.12
634.49287	22.07
634.51055	3.72
634.52822	3.12
634.5459	2.92
634.56357	0.27
634.58124	-11.18
634.59891	1.27
634.61657	2.57
634.63423	11.27
634.65189	14.77
634.66955	1.52
634.6872	12.67
634.70485	7.52
634.7225	0.67
634.74015	8.92
634.75779	2.87
634.77544	0.67
634.79307	-1.43
634.81071	14.57
634.82835	9.27
634.84598	2.57
634.86361	-1.53
634.88123	9.27
634.89886	5.77
634.91648	1.27
634.9341	-1.68
634.95172	7.17
634.96933	7.62
634.98695	9.77
635.00456	0.92
635.02216	6.87
635.03977	10.22
635.05737	5.27
635.07497	-1.73
635.09257	2.47
635.11016	7.92
635.12776	5.42
635.14535	-2.48
635.16294	13.02
635.18052	3.97
635.1981	6.77
635.21569	8.77
635.23326	2.87
635.25084	10.52
635.26841	1.52
635.28598	2.42
635.30355	-3.08
635.32112	-6.58
635.33868	-10.78
635.35624	-3.28
635.3738	1.42
635.39136	-2.58
635.40891	-3.13
635.42646	5.92
635.44401	5.77
635.46155	-2.33
635.4791	1.77
635.49664	5.87
635.51418	17.47
635.53171	2.52
635.54925	1.42
635.56678	-2.48
635.58431	5.47
635.60184	20.97
635.61936	19.87
635.63688	2.37
635.6544	9.72
635.67192	0.32
635.68943	4.52
635.70694	2.17
635.72445	9.62
635.74196	-2.83
635.75946	-6.93
635.77697	-1.38
635.79447	0.92
635.81196	10.82
635.82946	-0.63
635.84695	-5.58
635.86444	6.77
635.88193	8.57
635.89941	13.02
635.91689	3.82
635.93437	2.32
635.95185	1.27
635.96933	-0.03
635.9868	10.77
636.00427	31.92
636.02174	9.32
636.0392	1.52
636.05666	18.67
636.07412	6.27
636.09158	2.92
636.10904	-1.93
636.12649	7.17
636.14394	0.27
636.16139	13.52
636.17883	0.42
636.19628	-1.98
636.21372	-6.73
636.23116	0.32
636.24859	-4.23
636.26602	3.07
636.28345	11.87
636.30088	5.07
636.31831	0.77
636.33573	0.82
636.35315	5.72
636.37057	6.42
636.38799	-0.03
636.4054	9.82
636.42281	13.22
636.44022	5.72
636.45763	-2.13
636.47503	-5.98
636.49243	-2.18
636.50983	-3.43
636.52723	2.02
636.54462	0.87
636.56201	1.97
636.5794	-6.53
636.59679	-6.48
636.61417	4.42
636.63155	1.72
636.64893	18.62
636.66631	17.07
636.68368	3.87
636.70106	-5.28
636.71843	-8.68
636.73579	-7.78
636.75316	-0.13
636.77052	4.22
636.78788	6.02
636.80524	-0.18
636.82259	-7.68
636.83994	-5.73
636.85729	-7.38
636.87464	-8.48
636.89198	-5.53
636.90933	12.42
636.92667	5.87
636.944	-3.63
636.96134	-9.43
636.97867	-5.23
636.996	-1.38
637.01333	-0.03
637.03066	-1.63
637.04798	-7.68
637.0653	-4.28
637.08262	0.72
637.09993	-3.23
637.11724	-5.53
637.13455	5.27
637.15186	14.57
637.16917	10.17
637.18647	1.12
637.20377	7.72
637.22107	2.92
637.23837	5.42
637.25566	21.97
637.27295	3.57
637.29024	7.92
637.30752	-3.58
637.32481	-0.73
637.34209	4.82
637.35937	16.97
637.37664	10.57
637.39392	8.17
637.41119	1.62
637.42846	4.42
637.44572	2.27
637.46299	5.72
637.48025	22.07
637.49751	6.87
637.51476	0.12
637.53202	12.52
637.54927	0.82
637.56652	-0.08
637.58376	2.62
637.60101	-1.08
637.61825	5.77
637.63549	7.02
637.65273	5.17
637.66996	-0.73
637.68719	4.97
637.70442	3.57
637.72165	3.67
637.73887	8.82
637.7561	13.62
637.77332	7.62
637.79053	0.82
637.80775	9.77
637.82496	7.92
637.84217	6.02
637.85938	0.87
637.87658	5.02
637.89378	2.17
637.91098	-2.03
637.92818	-3.53
637.94538	7.02
637.96257	10.42
637.97976	6.77
637.99695	1.62
638.01413	-8.98
638.03132	-4.08
638.0485	0.17
638.06567	-8.48
638.08285	2.12
638.10002	8.77
638.11719	0.77
638.13436	-3.53
638.15153	0.12
638.16869	-10.38
638.18585	-1.73
638.20301	-7.73
638.22016	-11.13
638.23732	-12.88
638.25447	-9.28
638.27162	-4.98
638.28876	-7.23
638.30591	-7.28
638.32305	2.07
638.34019	9.17
638.35732	11.67
638.37446	10.07
638.39159	-4.58
638.40872	-8.83
638.42584	1.27
638.44297	1.87
638.46009	-3.23
638.47721	2.42
638.49432	12.32
638.51144	7.82
638.52855	6.02
638.54566	-5.03
638.56276	0.87
638.57987	2.32
638.59697	5.02
638.61407	2.92
638.63117	0.62
638.64826	1.37
638.66535	5.17
638.68244	3.17
638.69953	6.22
638.71661	8.62
638.7337	-1.08
638.75078	-0.63
638.76785	7.12
638.78493	1.27
638.802	-5.98
638.81907	3.67
638.83614	8.52
638.8532	11.02
638.87026	-4.98
638.88732	-10.68
638.90438	-2.83
638.92144	5.82
638.93849	10.07
638.95554	7.57
638.97259	2.32
638.98963	4.52
639.00668	9.47
639.02372	7.22
639.04075	12.97
639.05779	11.92
639.07482	6.52
639.09185	8.12
639.10888	-12.78
639.12591	-13.13
639.14293	-4.48
639.15995	0.32
639.17697	19.72
639.19398	21.32
639.211	24.17
639.22801	13.72
639.24502	-1.18
639.26202	-1.13
639.27903	-5.63
639.29603	5.42
639.31303	11.57
639.33002	-0.98
639.34702	2.92
639.36401	-0.53
639.381	-0.28
639.39798	4.82
639.41497	8.92
639.43195	11.62
639.44893	-1.88
639.4659	5.82
639.48288	8.12
639.49985	12.67
639.51682	3.67
639.53379	-6.58
639.55075	-9.28
639.56771	-16.63
639.58467	-5.33
639.60163	4.47
639.61858	4.67
639.63553	6.82
639.65248	6.72
639.66943	-5.68
639.68638	-1.78
639.70332	8.17
639.72026	9.07
639.73719	0.22
639.75413	9.42
639.77106	17.77
639.78799	28.87
639.80492	23.07
639.82184	5.77
639.83877	2.52
639.85569	4.17
639.8726	2.67
639.88952	9.07
639.90643	-3.03
639.92334	1.02
639.94025	3.82
639.95716	3.92
639.97406	1.87
639.99096	9.77
640.00786	4.87
640.02475	6.27
640.04165	0.52
640.05854	2.52
640.07542	2.92
640.09231	7.62
640.10919	7.17
640.12607	9.27
640.14295	-4.78
640.15983	-2.88
640.1767	0.42
640.19357	-0.58
640.21044	-0.18
640.22731	8.07
640.24417	9.57
640.26103	10.02
640.27789	9.97
640.29475	0.47
640.3116	-9.33
640.32845	-5.73
640.3453	4.67
640.36215	-0.88
640.37899	0.57
640.39583	15.92
640.41267	20.57
640.42951	-0.53
640.44634	-10.53
640.46317	-0.03
640.48	-3.73
640.49683	-8.18
640.51365	-5.53
640.53048	1.62
640.5473	6.47
640.56411	4.12
640.58093	13.17
640.59774	14.62
640.61455	-1.83
640.63136	-1.63
640.64816	-8.23
640.66496	-5.03
640.68176	6.42
640.69856	-4.68
640.71535	-2.53
640.73215	-2.13
640.74894	-5.78
640.76572	10.12
640.78251	13.97
640.79929	6.72
640.81607	8.67
640.83285	3.72
640.84963	7.22
640.8664	12.77
640.88317	19.92
640.89994	4.47
640.9167	5.17
640.93346	-5.18
640.95022	-3.28
640.96698	2.42
640.98374	-1.98
641.00049	-6.68
641.01724	-5.43
641.03399	-9.78
641.05074	-9.28
641.06748	-3.93
641.08422	7.17
641.10096	3.87
641.11769	12.17
641.13443	3.67
641.15116	-1.38
641.16789	-1.03
641.18461	-3.88
641.20134	17.67
641.21806	14.07
641.23478	1.82
641.25149	1.02
641.26821	7.57
641.28492	-1.63
641.30163	1.22
641.31833	-6.33
641.33504	-0.93
641.35174	-2.88
641.36844	5.77
641.38514	4.37
641.40183	4.62
641.41852	3.67
641.43521	7.52
641.4519	23.32
641.46858	14.07
641.48526	-3.03
641.50194	1.82
641.51862	-2.73
641.53529	-0.73
641.55197	14.82
641.56864	17.27
641.5853	2.97
641.60197	-0.58
641.61863	7.47
641.63529	-4.83
641.65195	-2.63
641.6686	5.72
641.68526	6.02
641.70191	12.52
641.71855	19.42
641.7352	13.62
641.75184	1.32
641.76848	-1.88
641.78512	-0.83
641.80175	-0.48
641.81839	13.87
641.83502	17.07
641.85164	11.32
641.86827	13.07
641.88489	4.02
641.90151	-2.78
641.91813	1.17
641.93475	8.12
641.95136	3.62
641.96797	-3.53
641.98458	-9.18
642.00119	2.52
642.01779	5.37
642.03439	4.27
642.05099	3.67
642.06758	-9.03
642.08418	-1.73
642.10077	0.97
642.11736	8.22
642.13394	3.87
642.15053	6.37
642.16711	2.87
642.18369	-4.88
642.20026	7.37
642.21684	15.62
642.23341	15.97
642.24998	11.92
642.26654	17.07
642.28311	12.87
642.29967	1.97
642.31623	-4.78
642.33279	3.67
642.34934	-1.63
642.36589	-12.03
642.38244	-14.33
642.39899	35.47
642.41553	89.27
642.43207	14.27
642.44861	-9.18
642.46515	-1.83
642.48169	2.87
642.49822	0.57
642.51475	3.12
642.53127	-2.38
642.5478	0.72
642.56432	9.02
642.58084	8.12
642.59736	1.37
642.61387	10.17
642.63039	10.82
642.6469	11.52
642.6634	21.17
642.67991	1.67
642.69641	7.67
642.71291	0.32
642.72941	10.62
642.74591	16.02
642.7624	4.87
642.77889	1.77
642.79538	-6.28
642.81186	-8.53
642.82834	-13.68
642.84483	-7.58
642.8613	-0.78
642.87778	-8.53
642.89425	10.72
642.91072	34.82
642.92719	-0.28
642.94366	4.62
642.96012	15.12
642.97658	5.82
642.99304	2.72
643.0095	4.92
643.02595	-2.78
643.0424	-4.93
643.05885	2.22
643.0753	-6.98
643.09174	-7.23
643.10818	-7.43
643.12462	-9.83
643.14106	-4.53
643.15749	-0.78
643.17392	3.52
643.19035	23.37
643.20678	17.02
643.2232	2.62
643.23962	14.02
643.25604	7.42
643.27246	-3.18
643.28887	-0.38
643.30528	9.27
643.32169	12.07
643.3381	4.37
643.35451	5.72
643.37091	14.87
643.38731	7.02
643.4037	-3.03
643.4201	-1.48
643.43649	7.97
643.45288	18.92
643.46927	10.32
643.48565	2.82
643.50204	11.02
643.51842	10.07
643.53479	-4.23
643.55117	5.62
643.56754	3.32
643.58391	6.17
643.60028	0.62
643.61664	5.37
643.63301	6.57
643.64937	9.32
643.66572	6.92
643.68208	1.87
643.69843	0.17
643.71478	-3.33
643.73113	-2.43
643.74748	-2.68
643.76382	1.52
643.78016	1.17
643.7965	6.82
643.81283	8.97
643.82917	10.72
643.8455	1.47
643.86183	16.07
643.87815	17.67
643.89448	10.77
643.9108	11.47
643.92712	5.52
643.94343	8.82
643.95974	-9.63
643.97606	-10.28
643.99236	4.27
644.00867	9.52
644.02497	7.92
644.04128	4.77
644.05758	6.57
644.07387	10.87
644.09017	4.57
644.10646	4.72
644.12275	3.52
644.13903	-0.33
644.15532	0.82
644.1716	2.82
644.18788	22.12
644.20415	10.42
644.22043	8.77
644.2367	10.17
644.25297	4.77
644.26924	8.92
644.2855	6.77
644.30176	2.27
644.31802	1.97
644.33428	11.62
644.35054	19.37
644.36679	3.87
644.38304	2.77
644.39928	5.22
644.41553	12.27
644.43177	1.47
644.44801	-4.93
644.46425	-3.78
644.48048	5.07
644.49672	-0.23
644.51295	5.37
644.52917	3.67
644.5454	13.92
644.56162	4.27
644.57784	8.22
644.59406	5.97
644.61028	6.12
644.62649	2.22
644.6427	3.87
644.65891	-1.98
644.67511	-5.83
644.69132	1.87
644.70752	9.52
644.72372	11.52
644.73991	5.82
644.7561	9.62
644.7723	17.62
644.78848	28.37
644.80467	21.62
644.82085	8.57
644.83703	11.52
644.85321	16.17
644.86939	5.82
644.88556	10.22
644.90173	16.42
644.9179	24.52
644.93407	22.12
644.95023	30.97
644.96639	16.97
644.98255	13.87
644.99871	7.22
645.01486	4.12
645.03102	11.87
645.04716	12.97
645.06331	12.32
645.07946	38.07
645.0956	72.32
645.11174	13.22
645.12787	17.27
645.14401	8.97
645.16014	12.97
645.17627	10.62
645.1924	8.77
645.20852	17.77
645.22464	9.22
645.24076	20.07
645.25688	31.87
645.27299	17.27
645.28911	13.87
645.30522	2.22
645.32132	11.17
645.33743	15.32
645.35353	11.47
645.36963	2.77
645.38573	8.12
645.40182	9.12
645.41792	4.82
645.43401	1.52
645.45009	4.87
645.46618	8.82
645.48226	-1.73
645.49834	-0.43
645.51442	-6.63
645.5305	-2.68
645.54657	3.12
645.56264	5.92
645.57871	0.82
645.59477	6.82
645.61084	0.57
645.6269	10.92
645.64296	10.32
645.65901	6.62
645.67507	7.97
645.69112	6.07
645.70716	1.42
645.72321	-4.18
645.73925	1.17
645.7553	5.02
645.77133	-3.58
645.78737	5.22
645.8034	16.32
645.81944	21.87
645.83546	1.92
645.85149	22.77
645.86751	9.62
645.88354	-1.98
645.89955	-3.53
645.91557	0.02
645.93159	-2.03
645.9476	4.87
645.96361	7.12
645.97961	9.72
645.99562	9.42
646.01162	11.57
646.02762	7.87
646.04361	1.87
646.05961	0.42
646.0756	-4.98
646.09159	6.32
646.10758	-0.13
646.12356	8.27
646.13954	10.22
646.15552	5.37
646.1715	15.67
646.18748	12.87
646.20345	4.67
646.21942	-3.33
646.23539	17.17
646.25135	24.87
646.26731	3.97
646.28327	10.07
646.29923	4.92
646.31519	16.82
646.33114	20.07
646.34709	12.02
646.36304	-0.08
646.37898	-2.08
646.39493	-7.28
646.41087	-0.98
646.4268	3.07
646.44274	0.32
646.45867	1.17
646.4746	9.07
646.49053	4.97
646.50646	-0.63
646.52238	-10.38
646.5383	-4.93
646.55422	-6.13
646.57014	-0.98
646.58605	1.97
646.60196	9.07
646.61787	6.82
646.63377	5.62
646.64968	8.22
646.66558	0.72
646.68148	-5.73
646.69737	6.57
646.71327	3.37
646.72916	2.27
646.74505	5.97
646.76093	14.97
646.77682	8.92
646.7927	3.32
646.80858	4.22
646.82446	-6.48
646.84033	-1.38
646.8562	0.77
646.87207	2.32
646.88794	10.92
646.9038	-4.33
646.91966	3.42
646.93552	4.22
646.95138	0.72
646.96723	4.97
646.98309	14.87
646.99894	4.97
647.01478	1.77
647.03063	13.92
647.04647	2.02
647.06231	-2.48
647.07815	-4.33
647.09398	-4.98
647.10981	0.37
647.12564	-2.78
647.14147	4.52
647.1573	13.32
647.17312	4.57
647.18894	0.02
647.20476	-10.23
647.22057	-10.58
647.23638	-3.93
647.25219	-2.93
647.268	-4.93
647.28381	-0.83
647.29961	8.82
647.31541	-0.68
647.33121	-0.03
647.34701	9.22
647.3628	2.67
647.37859	7.32
647.39438	3.37
647.41016	3.52
647.42595	3.02
647.44173	0.27
647.45751	-0.28
647.47328	1.82
647.48905	2.12
647.50483	10.32
647.52059	7.27
647.53636	3.27
647.55212	-3.53
647.56789	12.37
647.58364	42.12
647.5994	9.22
647.61515	1.42
647.63091	4.87
647.64665	6.02
647.6624	3.77
647.67814	-5.38
647.69389	-11.18
647.70963	-6.38
647.72536	-16.08
647.7411	-11.88
647.75683	-0.43
647.77256	5.72
647.78828	3.72
647.80401	2.97
647.81973	7.37
647.83545	8.77
647.85117	5.87
647.86688	4.22
647.88259	0.82
647.8983	3.12
647.91401	9.92
647.92971	14.92
647.94542	3.22
647.96112	4.67
647.97681	11.67
647.99251	4.92
648.0082	9.82
648.02389	11.02
648.03958	0.37
648.05526	1.57
648.07095	0.92
648.08663	2.67
648.1023	-7.23
648.11798	-3.78
648.13365	-3.23
648.14932	-0.78
648.16499	3.27
648.18066	-1.93
648.19632	-2.53
648.21198	-0.68
648.22764	1.72
648.24329	0.57
648.25895	8.02
648.2746	0.52
648.29025	3.42
648.30589	6.27
648.32153	3.57
648.33718	1.37
648.35281	12.97
648.36845	32.82
648.38408	68.57
648.39971	5.17
648.41534	-3.53
648.43097	2.07
648.44659	10.17
648.46221	15.47
648.47783	7.97
648.49345	-7.28
648.50906	6.37
648.52467	9.52
648.54028	-4.43
648.55589	-3.48
648.57149	9.97
648.5871	4.97
648.6027	1.72
648.61829	6.37
648.63389	3.77
648.64948	8.92
648.66507	5.52
648.68065	-1.83
648.69624	6.17
648.71182	16.47
648.7274	21.77
648.74298	18.62
648.75855	24.37
648.77412	17.82
648.78969	3.27
648.80526	-5.08
648.82083	3.07
648.83639	6.72
648.85195	-2.93
648.8675	1.22
648.88306	2.77
648.89861	1.27
648.91416	-2.28
648.92971	7.82
648.94526	14.02
648.9608	17.77
648.97634	10.57
648.99188	4.82
649.00741	3.32
649.02294	2.17
649.03847	8.07
649.054	-3.03
649.06953	6.32
649.08505	-1.38
649.10057	5.77
649.11609	-2.08
649.13161	6.57
649.14712	3.62
649.16263	2.07
649.17814	-0.98
649.19364	4.17
649.20915	21.22
649.22465	20.57
649.24015	14.57
649.25564	19.57
649.27114	8.02
649.28663	3.57
649.30212	-2.58
649.3176	-0.03
649.33309	-7.18
649.34857	-0.43
649.36405	8.77
649.37952	11.87
649.395	12.17
649.41047	14.87
649.42594	10.57
649.4414	2.97
649.45687	8.22
649.47233	-3.98
649.48779	1.52
649.50324	13.27
649.5187	14.22
649.53415	15.42
649.5496	12.37
649.56505	10.02
649.58049	8.67
649.59593	5.72
649.61137	7.27
649.62681	11.02
649.64224	3.52
649.65768	-1.68
649.67311	16.27
649.68853	18.52
649.70396	11.62
649.71938	12.77
649.7348	10.42
649.75022	20.52
649.76563	3.22
649.78105	10.47
649.79646	-1.53
649.81186	2.92
649.82727	11.07
649.84267	2.87
649.85807	6.47
649.87347	-0.93
649.88886	3.37
649.90426	5.72
649.91965	3.82
649.93504	-2.98
649.95042	7.42
649.9658	-3.08
649.98119	2.67
649.99656	8.97
650.01194	1.32
650.02731	-1.73
650.04268	-1.48
650.05805	-0.43
650.07342	-0.08
650.08878	5.77
650.10414	11.47
650.1195	-3.28
650.13486	1.02
650.15021	3.12
650.16556	8.82
650.18091	12.47
650.19626	12.32
650.2116	14.27
650.22694	6.02
650.24228	13.67
650.25762	7.22
650.27295	7.67
650.28828	2.12
650.30361	7.47
650.31894	-0.18
650.33426	-1.18
650.34958	2.42
650.3649	25.62
650.38022	18.82
650.39553	0.07
650.41085	7.22
650.42616	3.42
650.44146	7.27
650.45677	6.77
650.47207	7.92
650.48737	15.92
650.50267	-1.28
650.51796	-3.53
650.53325	3.27
650.54854	11.32
650.56383	11.12
650.57911	6.52
650.5944	7.07
650.60968	10.02
650.62495	8.37
650.64023	9.07
650.6555	-1.83
650.67077	-4.48
650.68604	2.57
650.70131	8.52
650.71657	4.87
650.73183	11.72
650.74709	10.42
650.76234	4.87
650.77759	10.42
650.79285	12.47
650.80809	9.02
650.82334	4.12
650.83858	4.62
650.85382	7.62
650.86906	11.22
650.8843	22.27
650.89953	6.82
650.91476	3.37
650.92999	-1.33
650.94522	4.07
650.96044	11.22
650.97566	5.92
650.99088	4.37
651.00609	-1.18
651.02131	2.57
651.03652	8.72
651.05173	3.87
651.06693	-10.48
651.08214	-3.38
651.09734	-5.48
651.11254	-2.13
651.12773	-4.73
651.14293	8.77
651.15812	-2.28
651.17331	1.42
651.1885	13.22
651.20368	-0.03
651.21886	-6.68
651.23404	7.87
651.24922	11.52
651.26439	7.17
651.27956	5.17
651.29473	-0.73
651.3099	12.57
651.32507	-9.43
651.34023	-2.83
651.35539	-2.08
651.37054	-8.78
651.3857	-16.23
651.40085	-2.98
651.416	4.37
651.43115	3.12
651.44629	-2.53
651.46144	-9.08
651.47658	4.72
651.49171	20.17
651.50685	12.47
651.52198	6.32
651.53711	1.77
651.55224	-1.53
651.56736	2.47
651.58249	8.72
651.59761	10.47
651.61273	-9.98
651.62784	2.12
651.64295	1.02
651.65806	-2.48
651.67317	-1.53
651.68828	-1.38
651.70338	4.97
651.71848	13.67
651.73358	17.97
651.74868	-0.08
651.76377	5.02
651.77886	5.32
651.79395	0.32
651.80904	-3.48
651.82412	5.72
651.8392	1.52
651.85428	5.32
651.86935	8.02
651.88443	12.42
651.8995	3.02
651.91457	-2.13
651.92963	2.37
651.9447	19.42
651.95976	10.17
651.97482	4.47
651.98988	1.97
652.00493	-4.03
652.01998	4.62
652.03503	17.52
652.05008	26.92
652.06512	64.52
652.08016	9.92
652.0952	6.22
652.11024	28.27
652.12527	9.52
652.14031	4.22
652.15534	5.27
652.17036	14.02
652.18539	5.47
652.20041	11.32
652.21543	9.87
652.23045	-3.03
652.24546	3.77
652.26047	11.82
652.27548	9.42
652.29049	6.57
652.3055	5.27
652.3205	9.52
652.3355	5.07
652.3505	0.67
652.36549	5.52
652.38048	13.27
652.39547	11.87
652.41046	8.92
652.42545	19.17
652.44043	15.32
652.45541	2.97
652.47039	10.72
652.48536	6.17
652.50034	-8.38
652.51531	-9.88
652.53028	-0.83
652.54524	0.62
652.5602	2.72
652.57517	-3.58
652.59012	32.27
652.60508	72.97
652.62003	9.17
652.63498	-4.63
652.64993	-2.28
652.66488	-1.18
652.67982	5.57
652.69476	8.62
652.7097	0.52
652.72464	-2.38
652.73957	5.17
652.7545	8.97
652.76943	23.27
652.78436	6.97
652.79928	6.07
652.8142	11.12
652.82912	6.77
652.84404	5.37
652.85895	-5.28
652.87387	2.47
652.88877	17.67
652.90368	18.62
652.91859	-5.73
652.93349	-0.68
652.94839	5.37
652.96328	3.97
652.97818	-0.48
652.99307	5.22
653.00796	11.42
653.02285	-0.08
653.03773	3.42
653.05261	0.62
653.06749	-1.93
653.08237	-2.58
653.09725	1.02
653.11212	4.57
653.12699	-0.88
653.14186	14.32
653.15672	17.72
653.17158	0.62
653.18644	11.67
653.2013	4.72
653.21616	12.27
653.23101	11.42
653.24586	-0.58
653.26071	-6.73
653.27555	12.82
653.29039	18.57
653.30524	2.67
653.32007	5.37
653.33491	93.67
653.34974	226.92
653.36457	19.57
653.3794	1.02
653.39423	-3.88
653.40905	-0.48
653.42387	2.77
653.43869	4.72
653.45351	1.02
653.46832	-5.53
653.48313	-4.13
653.49794	2.02
653.51274	11.07
653.52755	12.52
653.54235	5.92
653.55715	-6.08
653.57194	-1.28
653.58674	9.12
653.60153	8.32
653.61632	2.32
653.6311	-6.73
653.64589	-2.58
653.66067	9.12
653.67545	5.17
653.69023	-7.03
653.705	-5.03
653.71977	-2.13
653.73454	-1.53
653.74931	-1.08
653.76407	6.62
653.77883	7.62
653.79359	10.77
653.80835	4.22
653.8231	3.02
653.83786	8.42
653.85261	19.72
653.86735	-1.23
653.8821	9.02
653.89684	10.67
653.91158	3.82
653.92632	14.32
653.94105	9.97
653.95579	12.32
653.97052	-2.33
653.98524	-5.73
653.99997	2.22
654.01469	3.87
654.02941	10.27
654.04413	18.32
654.05884	4.92
654.07356	12.67
654.08827	49.32
654.10297	98.12
654.11768	20.17
654.13238	21.62
654.14708	14.97
654.16178	3.32
654.17648	6.27
654.19117	-3.63
654.20586	-6.53
654.22055	7.47
654.23524	11.02
654.24992	38.32
654.2646	58.02
654.27928	26.82
654.29395	16.67
654.30863	21.87
654.3233	23.32
654.33797	15.07
654.35263	14.32
654.3673	19.77
654.38196	18.67
654.39662	2.02
654.41127	8.22
654.42593	14.92
654.44058	14.32
654.45523	1.17
654.46987	1.52
654.48452	14.02
654.49916	13.42
654.5138	14.57
654.52844	13.22
654.54307	16.62
654.5577	24.72
654.57233	16.82
654.58696	16.52
654.60158	13.97
654.6162	9.42
654.63082	2.27
654.64544	14.37
654.66005	7.22
654.67467	6.37
654.68928	12.32
654.70388	15.72
654.71849	18.62
654.73309	53.62
654.74769	110.82
654.76229	20.07
654.77688	19.97
654.79148	13.77
654.80607	5.97
654.82065	19.17
654.83524	16.12
654.84982	12.32
654.8644	6.67
654.87898	4.52
654.89355	6.67
654.90813	8.42
654.9227	6.17
654.93727	8.37
654.95183	10.17
654.96639	13.92
654.98095	16.47
654.99551	13.07
655.01007	22.87
655.02462	8.02
655.03917	8.82
655.05372	6.17
655.06827	11.67
655.08281	28.22
655.09735	27.22
655.11189	26.62
655.12643	23.97
655.14096	18.57
655.15549	22.87
655.17002	15.62
655.18454	17.12
655.19907	24.92
655.21359	33.77
655.22811	39.17
655.24262	36.52
655.25714	37.27
655.27165	45.27
655.28616	43.02
655.30067	46.72
655.31517	54.62
655.32967	66.57
655.34417	89.72
655.35867	139.02
655.37316	314.17
655.38765	1023.77
655.40214	3115.82
655.41663	6724.37
655.43111	9524.02
655.4456	8998.72
655.46008	6546.07
655.47455	4733.17
655.48903	3918.27
655.5035	3202.87
655.51797	2441.77
655.53244	1705.27
655.5469	1207.17
655.56136	1288.87
655.57582	2604.42
655.59028	5649.97
655.60474	8920.77
655.61919	9572.47
655.63364	7471.02
655.64809	5248.57
655.66253	4125.92
655.67697	3405.27
655.69141	2687.07
655.70585	1909.12
655.72029	1227.77
655.73472	721.77
655.74915	404.47
655.76358	232.97
655.778	152.87
655.79243	121.32
655.80685	83.87
655.82127	56.92
655.83568	51.22
655.8501	60.42
655.86451	42.42
655.87891	40.17
655.89332	31.52
655.90772	18.12
655.92212	16.97
655.93652	36.72
655.95092	27.42
655.96531	15.97
655.9797	11.02
655.99409	19.82
656.00848	18.07
656.02286	27.07
656.03724	20.47
656.05162	13.97
656.066	4.12
656.08037	6.57
656.09475	12.22
656.10911	9.47
656.12348	11.52
656.13784	17.47
656.15221	12.92
656.16657	26.62
656.18092	17.32
656.19528	18.92
656.20963	11.42
656.22398	6.37
656.23833	15.92
656.25267	17.37
656.26701	21.77
656.28135	3.87
656.29569	9.37
656.31002	17.52
656.32436	26.37
656.33869	27.77
656.35301	9.97
656.36734	9.27
656.38166	1.77
656.39598	-2.58
656.4103	-1.03
656.42461	5.17
656.43892	4.37
656.45323	3.62
656.46754	9.07
656.48185	12.12
656.49615	6.47
656.51045	7.17
656.52475	7.62
656.53904	2.42
656.55334	-2.88
656.56763	0.57
656.58192	5.77
656.5962	3.77
656.61048	2.27
656.62476	6.92
656.63904	10.57
656.65332	9.97
656.66759	3.67
656.68186	4.37
656.69613	4.42
656.7104	2.27
656.72466	14.37
656.73892	11.32
656.75318	18.47
656.76744	2.32
656.78169	7.17
656.79594	20.02
656.81019	35.97
656.82444	-3.68
656.83868	5.47
656.85292	7.42
656.86716	5.87
656.8814	8.22
656.89563	1.47
656.90986	-0.83
656.92409	2.22
656.93832	9.27
656.95254	8.07
656.96676	8.62
656.98098	19.12
656.9952	6.17
657.00941	6.67
657.02363	-4.23
657.03784	-0.63
657.05204	2.32
657.06625	21.07
657.08045	7.67
657.09465	4.42
657.10885	-5.63
657.12304	7.67
657.13723	4.47
657.15142	3.72
657.16561	-0.03
657.1798	-4.38
657.19398	-16.18
657.20816	-2.33
657.22234	-3.28
657.23651	2.32
657.25068	1.32
657.26485	4.12
657.27902	2.27
657.29319	-7.98
657.30735	4.12
657.32151	2.12
657.33567	8.62
657.34982	23.72
657.36398	15.12
657.37813	13.67
657.39227	0.07
657.40642	14.77
657.42056	18.77
657.4347	6.27
657.44884	6.47
657.46298	2.52
657.47711	13.12
657.49124	19.87
657.50537	1.37
657.5195	-1.03
657.53362	-2.28
657.54774	2.37
657.56186	17.27
657.57598	26.22
657.59009	9.37
657.6042	8.97
657.61831	7.87
657.63242	6.72
657.64652	8.62
657.66062	10.62
657.67472	12.57
657.68882	12.52
657.70291	2.17
657.717	5.87
657.73109	4.97
657.74518	13.47
657.75926	5.17
657.77335	-2.03
657.78742	1.77
657.8015	-2.48
657.81558	10.02
657.82965	10.57
657.84372	-6.03
657.85778	6.42
657.87185	2.17
657.88591	6.07
657.89997	3.97
657.91403	12.72
657.92808	14.22
657.94214	7.92
657.95618	7.17
657.97023	1.22
657.98428	8.07
657.99832	32.02
658.01236	9.97
658.0264	-9.03
658.04043	0.67
658.05447	5.97
658.0685	-7.88
658.08252	-5.83
658.09655	5.42
658.11057	15.87
658.12459	14.72
658.13861	22.47
658.15263	9.62
658.16664	21.07
658.18065	11.07
658.19466	1.42
658.20866	-3.53
658.22267	0.47
658.23667	9.47
658.25067	6.87
658.26466	4.42
658.27865	5.52
658.29265	2.02
658.30663	2.57
658.32062	1.82
658.3346	2.67
658.34858	5.92
658.36256	4.17
658.37654	1.32
658.39051	13.52
658.40448	14.12
658.41845	8.17
658.43242	6.62
658.44638	0.32
658.46035	-3.83
658.4743	7.47
658.48826	10.22
658.50221	15.82
658.51617	8.02
658.53012	-3.48
658.54406	-5.78
658.55801	3.32
658.57195	0.67
658.58589	13.92
658.59983	14.77
658.61376	-3.88
658.62769	-0.53
658.64162	10.17
658.65555	8.87
658.66947	3.22
658.6834	27.57
658.69731	70.57
658.71123	15.22
658.72515	14.67
658.73906	8.17
658.75297	11.17
658.76688	6.62
658.78078	12.62
658.79468	2.77
658.80858	-4.83
658.82248	-0.28
658.83638	11.22
658.85027	13.82
658.86416	8.12
658.87805	6.62
658.89193	-3.28
658.90582	1.07
658.9197	4.12
658.93357	4.02
658.94745	3.42
658.96132	-2.13
658.97519	9.87
658.98906	-5.53
659.00293	-5.98
659.01679	-5.83
659.03065	-1.98
659.04451	9.67
659.05837	3.87
659.07222	2.92
659.08607	5.87
659.09992	12.82
659.11377	9.92
659.12761	0.27
659.14145	6.47
659.15529	10.52
659.16913	11.62
659.18296	13.07
659.19679	5.62
659.21062	12.57
659.22445	10.27
659.23827	29.47
659.25209	20.82
659.26591	12.47
659.27973	14.12
659.29354	5.52
659.30735	-1.53
659.32116	7.02
659.33497	5.47
659.34877	-5.18
659.36258	-1.28
659.37637	16.67
659.39017	10.77
659.40397	-6.03
659.41776	3.72
659.43155	3.82
659.44533	5.62
659.45912	16.92
659.4729	0.87
659.48668	8.32
659.50046	5.57
659.51423	1.27
659.52801	10.77
659.54178	19.52
659.55554	2.52
659.56931	4.97
659.58307	5.77
659.59683	7.22
659.61059	11.57
659.62434	34.82
659.6381	67.42
659.65185	4.97
659.6656	-7.78
659.67934	1.37
659.69308	2.67
659.70682	8.87
659.72056	9.47
659.7343	9.47
659.74803	1.07
659.76176	2.62
659.77549	2.72
659.78922	16.02
659.80294	-5.08
659.81666	-2.78
659.83038	11.57
659.84409	9.27
659.85781	-0.63
659.87152	0.62
659.88523	1.12
659.89893	0.47
659.91264	10.72
659.92634	20.37
659.94004	8.37
659.95373	4.52
659.96743	7.62
659.98112	14.07
659.99481	12.12
660.00849	6.12
660.02218	12.17
660.03586	11.62
660.04954	-3.03
660.06322	6.12
660.07689	22.32
660.09056	29.32
660.10423	-4.88
660.1179	3.92
660.13156	13.72
660.14522	5.77
660.15888	-1.98
660.17254	3.02
660.1862	7.47
660.19985	2.22
660.2135	0.02
660.22714	6.12
660.24079	2.22
660.25443	2.02
660.26807	5.62
660.28171	11.27
660.29534	10.97
660.30898	2.37
660.32261	-1.58
660.33623	-9.83
660.34986	-7.88
660.36348	9.47
660.3771	4.92
660.39072	18.17
660.40433	16.42
660.41795	14.77
660.43156	2.57
660.44517	5.62
660.45877	11.47
660.47237	3.07
660.48598	1.37
660.49957	-0.98
660.51317	4.32
660.52676	2.97
660.54035	11.67
660.55394	17.47
660.56753	7.17
660.58111	13.17
660.59469	22.27
660.60827	2.27
660.62185	3.77
660.63542	11.22
660.64899	15.77
660.66256	18.02
660.67613	13.77
660.68969	16.97
660.70325	15.17
660.71681	0.32
660.73037	-2.08
660.74392	3.57
660.75747	3.17
660.77102	8.17
660.78457	2.42
660.79811	11.67
660.81165	15.12
660.82519	8.97
660.83873	5.47
660.85226	9.72
660.86579	14.47
660.87932	9.97
660.89285	3.57
660.90637	15.87
660.9199	10.12
660.93342	7.07
660.94693	11.62
660.96045	0.02
660.97396	10.07
660.98747	16.47
661.00098	1.52
661.01448	-4.63
661.02798	1.17
661.04148	7.37
661.05498	16.02
661.06848	8.02
661.08197	-2.08
661.09546	17.42
661.10895	36.47
661.12243	11.32
661.13591	8.77
661.14939	-5.58
661.16287	-1.23
661.17635	15.02
661.18982	10.87
661.20329	25.27
661.21676	19.22
661.23022	7.37
661.24369	6.32
661.25715	10.62
661.27061	0.57
661.28406	12.57
661.29752	-5.38
661.31097	-0.68
661.32441	5.97
661.33786	0.27
661.3513	-0.88
661.36474	1.92
661.37818	4.72
661.39162	2.22
661.40505	47.57
661.41848	117.27
661.43191	14.42
661.44534	5.92
661.45876	7.07
661.47218	13.07
661.4856	13.12
661.49902	14.27
661.51243	1.72
661.52585	12.82
661.53925	12.92
661.55266	10.22
661.56606	5.97
661.57947	8.92
661.59287	-0.23
661.60626	-0.78
661.61966	12.97
661.63305	7.17
661.64644	8.22
661.65983	5.22
661.67321	9.87
661.68659	5.92
661.69997	17.92
661.71335	10.12
661.72672	21.87
661.7401	43.57
661.75347	4.42
661.76683	9.62
661.7802	20.67
661.79356	23.07
661.80692	0.77
661.82028	7.67
661.83363	6.02
661.84698	0.02
661.86033	10.32
661.87368	14.27
661.88703	11.47
661.90037	6.42
661.91371	3.37
661.92705	-0.93
661.94038	1.67
661.95372	6.02
661.96705	19.07
661.98038	29.07
661.9937	14.02
662.00702	8.17
662.02034	14.32
662.03366	11.57
662.04698	6.87
662.06029	0.22
662.0736	-0.33
662.08691	-0.38
662.10022	2.57
662.11352	10.87
662.12682	11.32
662.14012	-10.23
662.15342	2.62
662.16671	13.77
662.18	0.72
662.19329	2.77
662.20658	-0.73
662.21986	1.12
662.23314	2.02
662.24642	-3.98
662.2597	7.42
662.27297	6.72
662.28624	-3.08
662.29951	8.77
662.31278	-2.38
662.32604	-1.18
662.3393	4.57
662.35256	5.47
662.36582	2.67
662.37907	-1.33
662.39233	2.67
662.40558	8.57
662.41882	8.17
662.43207	9.07
662.44531	3.17
662.45855	-3.73
662.47179	-0.83
662.48502	3.52
662.49825	0.47
662.51148	12.77
662.52471	12.72
662.53794	2.97
662.55116	11.82
662.56438	2.22
662.5776	1.67
662.59081	12.17
662.60402	12.67
662.61723	3.97
662.63044	10.07
662.64365	4.67
662.65685	1.22
662.67005	13.52
662.68325	19.27
662.69644	0.42
662.70964	4.72
662.72283	11.07
662.73601	12.77
662.7492	12.57
662.76238	8.82
662.77556	4.42
662.78874	11.42
662.80192	14.82
662.81509	19.77
662.82826	10.27
662.84143	-3.73
662.8546	3.72
662.86776	8.82
662.88092	-1.23
662.89408	-0.58
662.90724	7.57
662.92039	28.42
662.93354	6.62
662.94669	2.57
662.95984	9.02
662.97298	4.97
662.98612	-4.28
662.99926	-3.88
663.0124	8.07
663.02553	7.22
663.03866	7.72
663.05179	8.72
663.06492	9.27
663.07804	12.72
663.09116	17.77
663.10428	4.37
663.1174	-0.28
663.13052	5.12
663.14363	7.07
663.15674	-5.23
663.16984	5.82
663.18295	16.72
663.19605	15.32
663.20915	10.87
663.22225	10.02
663.23534	11.32
663.24843	-2.58
663.26152	-4.08
663.27461	-3.98
663.2877	4.12
663.30078	4.32
663.31386	7.92
663.32694	7.22
663.34001	16.52
663.35308	13.12
663.36615	1.77
663.37922	12.77
663.39229	21.77
663.40535	-4.43
663.41841	-5.53
663.43147	0.62
663.44452	8.87
663.45758	9.52
663.47063	9.27
663.48368	7.17
663.49672	6.12
663.50977	-3.23
663.52281	-1.53
663.53584	-0.63
663.54888	-6.63
663.56191	-4.03
663.57494	-6.68
663.58797	-8.38
663.601	1.92
663.61402	4.62
663.62704	12.32
663.64006	4.62
663.65308	1.47
663.66609	-5.28
663.6791	-3.23
663.69211	16.07
663.70512	22.27
663.71812	1.92
663.73112	-3.48
663.74412	1.37
663.75712	13.52
663.77011	8.92
663.78311	5.02
663.79609	10.67
663.80908	8.17
663.82207	7.07
663.83505	-9.38
663.84803	-1.18
663.861	2.47
663.87398	5.07
663.88695	6.42
663.89992	0.57
663.91289	0.57
663.92585	5.62
663.93881	-0.23
663.95177	10.32
663.96473	24.77
663.97769	10.77
663.99064	-2.58
664.00359	1.07
664.01654	13.57
664.02948	11.62
664.04242	6.17
664.05536	5.92
664.0683	6.42
664.08124	11.52
664.09417	15.17
664.1071	13.77
664.12003	9.97
664.13295	0.77
664.14588	-1.08
664.1588	1.17
664.17171	0.77
664.18463	6.02
664.19754	2.32
664.21045	11.37
664.22336	5.57
664.23627	11.22
664.24917	9.72
664.26207	2.22
664.27497	-0.58
664.28787	11.77
664.30076	13.27
664.31365	2.42
664.32654	3.62
664.33942	1.22
664.35231	3.87
664.36519	2.52
664.37807	2.02
664.39094	10.97
664.40382	16.17
664.41669	16.02
664.42956	10.77
664.44242	4.77
664.45529	6.37
664.46815	6.42
664.48101	7.17
664.49387	17.47
664.50672	-6.63
664.51957	-4.48
664.53242	8.12
664.54527	7.57
664.55811	7.27
664.57095	5.07
664.58379	3.07
664.59663	-5.58
664.60946	4.37
664.6223	12.07
664.63513	8.62
664.64795	12.22
664.66078	9.37
664.6736	1.37
664.68642	2.47
664.69924	4.22
664.71205	5.77
664.72486	-2.58
664.73767	-1.78
664.75048	9.62
664.76329	9.02
664.77609	4.12
664.78889	20.87
664.80169	11.57
664.81448	0.17
664.82728	1.52
664.84007	5.72
664.85285	-1.93
664.86564	9.12
664.87842	-0.28
664.8912	0.67
664.90398	17.32
664.91676	14.02
664.92953	3.87
664.9423	13.17
664.95507	13.57
664.96783	12.42
664.9806	13.42
664.99336	4.67
665.00612	8.02
665.01887	13.27
665.03163	10.12
665.04438	12.87
665.05713	21.92
665.06987	3.47
665.08262	-10.63
665.09536	-3.78
665.1081	5.57
665.12083	5.17
665.13357	1.37
665.1463	16.87
665.15903	12.57
665.17175	18.47
665.18448	-0.38
665.1972	5.62
665.20992	4.27
665.22263	7.77
665.23535	24.17
665.24806	52.42
665.26077	8.77
665.27348	-0.38
665.28618	12.62
665.29888	10.27
665.31158	-0.08
665.32428	15.77
665.33697	6.77
665.34967	3.37
665.36236	1.17
665.37504	6.77
665.38773	7.97
665.40041	14.92
665.41309	12.67
665.42577	8.57
665.43844	-2.28
665.45111	2.52
665.46378	5.07
665.47645	5.67
665.48912	12.47
665.50178	8.82
665.51444	1.52
665.5271	10.52
665.53975	2.92
665.55241	-1.38
665.56506	3.27
665.5777	1.82
665.59035	7.82
665.60299	8.97
665.61563	13.07
665.62827	18.12
665.64091	7.02
665.65354	-0.93
665.66617	4.22
665.6788	7.32
665.69142	12.47
665.70405	10.82
665.71667	-0.23
665.72929	0.52
665.7419	4.77
665.75452	-6.13
665.76713	-1.13
665.77974	3.07
665.79234	18.67
665.80495	13.82
665.81755	7.67
665.83015	-5.93
665.84274	9.02
665.85534	1.02
665.86793	-0.93
665.88052	5.67
665.8931	11.27
665.90569	1.27
665.91827	-2.78
665.93085	-6.83
665.94343	9.67
665.956	10.22
665.96857	-6.03
665.98114	-1.68
665.99371	-11.13
666.00627	-12.88
666.01883	-2.93
666.03139	12.62
666.04395	14.52
666.05651	15.87
666.06906	21.07
666.08161	10.12
666.09415	6.47
666.1067	6.62
666.11924	6.17
666.13178	2.87
666.14432	0.82
666.15685	-2.48
666.16939	0.47
666.18192	1.57
666.19444	4.47
666.20697	12.62
666.21949	17.62
666.23201	10.07
666.24453	4.02
666.25705	12.42
666.26956	6.72
666.28207	9.52
666.29458	1.57
666.30708	-2.98
666.31959	1.77
666.33209	9.37
666.34458	6.82
666.35708	8.37
666.36957	13.97
666.38206	14.97
666.39455	12.57
666.40704	3.87
666.41952	6.97
666.432	9.37
666.44448	9.57
666.45696	0.67
666.46943	2.17
666.4819	6.42
666.49437	11.52
666.50684	11.27
666.5193	-1.28
666.53176	-9.18
666.54422	-4.03
666.55668	7.57
666.56913	1.42
666.58158	3.92
666.59403	12.62
666.60648	10.62
666.61892	4.47
666.63136	10.87
666.6438	6.87
666.65624	2.52
666.66867	14.92
666.68111	12.27
666.69354	12.62
666.70596	10.62
666.71839	1.42
666.73081	7.22
666.74323	-2.08
666.75565	13.22
666.76806	12.87
666.78047	-2.68
666.79288	1.72
666.80529	10.32
666.81769	5.77
666.8301	7.62
666.8425	9.72
666.85489	-0.78
666.86729	3.52
666.87968	-3.23
666.89207	-0.58
666.90446	10.47
666.91684	9.12
666.92923	2.27
666.94161	19.57
666.95399	39.42
666.96636	6.62
666.97873	3.57
666.9911	-10.13
667.00347	4.67
667.01584	11.17
667.0282	11.87
667.04056	-3.28
667.05292	0.82
667.06528	5.57
667.07763	-5.03
667.08998	5.67
667.10233	9.77
667.11467	-5.33
667.12702	-6.58
667.13936	-2.88
667.1517	13.32
667.16403	6.52
667.17637	7.22
667.1887	-5.08
667.20103	-9.03
667.21335	-5.08
667.22568	0.52
667.238	6.07
667.25032	4.27
667.26263	12.02
667.27495	5.82
667.28726	9.82
667.29957	22.07
667.31188	13.67
667.32418	8.27
667.33648	5.27
667.34878	10.72
667.36108	6.27
667.37337	-8.93
667.38566	-0.03
667.39795	7.82
667.41024	8.97
667.42252	21.42
667.43481	13.47
667.44709	6.52
667.45936	6.77
667.47164	10.72
667.48391	8.77
667.49618	-6.23
667.50845	-5.53
667.52071	8.37
667.53297	5.22
667.54523	9.07
667.55749	2.07
667.56975	4.77
667.582	-0.28
667.59425	4.97
667.6065	19.57
667.61874	8.67
667.63099	18.92
667.64323	16.57
667.65546	0.87
667.6677	5.17
667.67993	5.92
667.69216	9.37
667.70439	1.97
667.71662	-0.08
667.72884	7.12
667.74106	8.37
667.75328	5.47
667.76549	5.02
667.77771	2.47
667.78992	7.92
667.80213	4.92
667.81433	-3.28
667.82654	10.42
667.83874	10.42
667.85094	-6.93
667.86313	-5.88
667.87533	-5.63
667.88752	-2.53
667.89971	1.22
667.91189	-0.03
667.92408	-4.38
667.93626	2.52
667.94844	8.32
667.96061	13.77
667.97279	2.62
667.98496	0.97
667.99713	-0.78
668.0093	4.07
668.02146	15.47
668.03362	13.67
668.04578	1.67
668.05794	-10.33
668.07009	-3.08
668.08224	7.07
668.09439	23.17
668.10654	13.22
668.11868	14.37
668.13083	7.77
668.14297	4.42
668.1551	9.62
668.16724	8.02
668.17937	8.97
668.1915	-2.58
668.20363	5.57
668.21575	4.72
668.22788	0.47
668.24	8.82
668.25211	16.42
668.26423	19.67
668.27634	3.62
668.28845	3.22
668.30056	-2.28
668.31266	0.72
668.32477	4.07
668.33687	-1.68
668.34897	-3.13
668.36106	7.57
668.37315	16.27
668.38524	7.22
668.39733	5.67
668.40942	-1.18
668.4215	7.47
668.43358	2.62
668.44566	4.62
668.45774	7.57
668.46981	-1.08
668.48188	1.17
668.49395	8.27
668.50602	13.22
668.51808	6.27
668.53014	3.92
668.5422	4.47
668.55425	2.82
668.56631	9.57
668.57836	4.17
668.59041	7.82
668.60246	0.92
668.6145	-7.28
668.62654	-5.68
668.63858	5.67
668.65062	5.77
668.66265	11.72
668.67468	-2.23
668.68671	4.17
668.69874	19.52
668.71076	9.92
668.72278	3.22
668.7348	1.32
668.74682	-0.23
668.75883	0.57
668.77085	-8.08
668.78286	-10.38
668.79486	1.07
668.80687	12.02
668.81887	3.82
668.83087	6.72
668.84287	-2.68
668.85486	9.12
668.86685	-6.18
668.87884	-5.93
668.89083	6.72
668.90282	13.87
668.9148	1.12
668.92678	0.67
668.93876	3.77
668.95073	4.47
668.9627	0.17
668.97468	3.72
668.98664	9.02
668.99861	10.67
669.01057	10.27
669.02253	4.87
669.03449	10.87
669.04645	1.42
669.0584	4.47
669.07035	0.37
669.0823	-1.58
669.09424	-6.83
669.10619	-5.28
669.11813	4.57
669.13007	10.87
669.142	12.57
669.15393	14.77
669.16587	3.42
669.17779	-1.83
669.18972	-4.73
669.20164	-5.98
669.21356	4.92
669.22548	6.92
669.2374	5.47
669.24931	8.12
669.26123	-3.68
669.27313	8.42
669.28504	12.02
669.29694	4.47
669.30885	3.17
669.32074	6.82
669.33264	9.92
669.34454	-1.03
669.35643	-3.28
669.36832	-5.48
669.3802	0.67
669.39209	-2.88
669.40397	1.17
669.41585	-3.28
669.42773	-5.48
669.4396	-13.13
669.45147	-11.18
669.46334	-2.43
669.47521	4.42
669.48707	-4.33
669.49894	-2.43
669.5108	5.02
669.52265	3.32
669.53451	10.37
669.54636	-0.88
669.55821	7.12
669.57006	0.47
669.5819	-5.53
669.59375	-2.33
669.60559	4.32
669.61742	1.72
669.62926	0.52
669.64109	-1.03
669.65292	5.97
669.66475	3.12
669.67658	-3.28
669.6884	-3.48
669.70022	1.32
669.71204	14.67
669.72385	4.12
669.73567	2.52
669.74748	0.02
669.75928	0.97
669.77109	1.37
669.78289	-0.13
669.79469	1.37
669.80649	0.82
669.81829	-4.48
669.83008	5.52
669.84187	-0.78
669.85366	-0.68
669.86545	1.57
669.87723	6.32
669.88901	13.02
669.90079	12.22
669.91257	6.22
669.92434	18.37
669.93611	22.97
669.94788	17.97
669.95965	5.87
669.97141	-1.98
669.98317	0.37
669.99493	5.97
670.00669	0.87
670.01844	6.97
670.0302	9.22
670.04194	3.22
670.05369	8.77
670.06544	-2.98
670.07718	2.12
670.08892	5.82
670.10065	4.92
670.11239	5.57
670.12412	9.87
670.13585	8.92
670.14758	0.47
670.1593	-1.13
670.17103	8.32
670.18275	18.37
670.19446	3.02
670.20618	9.52
670.21789	6.37
670.2296	9.37
670.24131	-1.58
670.25301	10.02
670.26472	20.32
670.27642	15.57
670.28811	5.07
670.29981	5.67
670.3115	1.02
670.32319	-3.93
670.33488	-4.43
670.34656	-3.38
670.35825	9.37
670.36993	7.07
670.38161	1.52
670.39328	-2.33
670.40496	2.72
670.41663	-0.93
670.42829	4.17
670.43996	7.37
670.45162	4.87
670.46328	-1.53
670.47494	-6.08
670.4866	1.92
670.49825	11.67
670.5099	6.17
670.52155	2.47
670.5332	12.02
670.54484	1.77
670.55648	-1.48
670.56812	12.32
670.57976	0.12
670.59139	-2.38
670.60302	1.72
670.61465	7.27
670.62628	1.57
670.6379	-3.53
670.64952	3.42
670.66114	-2.38
670.67276	-10.08
670.68438	-3.03
670.69599	8.97
670.7076	3.22
670.7192	5.57
670.73081	15.42
670.74241	13.97
670.75401	7.07
670.76561	8.97
670.7772	9.72
670.78879	2.97
670.80038	-3.43
670.81197	-5.13
670.82355	1.47
670.83514	8.32
670.84672	-5.33
670.85829	-5.53
670.86987	-4.83
670.88144	1.07
670.89301	-5.63
670.90458	-7.33
670.91614	-3.58
670.92771	5.72
670.93927	8.77
670.95083	9.57
670.96238	3.27
670.97393	-5.73
670.98548	-2.03
670.99703	-5.98
671.00858	-5.53
671.02012	-0.38
671.03166	-10.38
671.0432	-4.88
671.05473	4.97
671.06627	8.47
671.0778	0.47
671.08933	-3.18
671.10085	3.87
671.11238	10.27
671.1239	5.17
671.13542	9.82
671.14693	2.57
671.15845	-0.68
671.16996	8.62
671.18147	11.72
671.19297	8.42
671.20448	14.77
671.21598	-1.73
671.22748	-1.78
671.23897	0.27
671.25047	-2.13
671.26196	4.17
671.27345	-2.88
671.28493	-0.88
671.29642	1.42
671.3079	5.87
671.31938	0.17
671.33085	-6.08
671.34233	8.07
671.3538	13.77
671.36527	4.87
671.37674	-10.43
671.3882	-11.48
671.39966	-6.53
671.41112	-1.03
671.42258	-4.28
671.43404	3.17
671.44549	9.97
671.45694	5.52
671.46838	10.17
671.47983	7.92
671.49127	3.92
671.50271	16.12
671.51415	8.62
671.52558	6.17
671.53702	9.02
671.54845	12.77
671.55987	2.97
671.5713	3.02
671.58272	1.47
671.59414	8.37
671.60556	29.27
671.61698	20.62
671.62839	1.97
671.6398	4.17
671.65121	1.77
671.66261	-2.93
671.67402	-5.38
671.68542	-0.28
671.69681	-8.23
671.70821	-7.03
671.7196	1.02
671.73099	-8.58
671.74238	-2.28
671.75377	2.77
671.76515	1.22
671.77653	-1.43
671.78791	-0.53
671.79929	12.87
671.81066	13.42
671.82203	17.87
671.8334	-0.63
671.84477	2.47
671.85613	7.92
671.86749	7.87
671.87885	13.77
671.89021	26.87
671.90156	6.22
671.91291	-8.58
671.92426	-10.78
671.93561	-2.63
671.94695	0.02
671.9583	1.92
671.96963	16.02
671.98097	10.27
671.99231	6.82
672.00364	-10.68
672.01497	2.22
672.02629	5.17
672.03762	-1.38
672.04894	-1.68
672.06026	-8.03
672.07158	-9.18
672.08289	-3.88
672.0942	-4.23
672.10551	16.67
672.11682	32.82
672.12813	10.07
672.13943	2.52
672.15073	-1.28
672.16203	2.07
672.17332	2.72
672.18461	5.12
672.1959	14.07
672.20719	14.52
672.21848	15.42
672.22976	13.47
672.24104	10.47
672.25232	1.42
672.26359	0.72
672.27487	-1.73
672.28614	9.92
672.29741	8.42
672.30867	-1.48
672.31993	2.62
672.33119	3.92
672.34245	2.42
672.35371	-7.78
672.36496	-1.98
672.37621	0.77
672.38746	-2.03
672.39871	-1.53
672.40995	3.57
672.42119	13.12
672.43243	17.92
672.44367	12.37
672.4549	-3.73
672.46613	8.42
672.47736	7.77
672.48859	11.92
672.49981	4.37
672.51103	-0.48
672.52225	2.67
672.53347	4.12
672.54468	3.22
672.55589	9.47
672.5671	2.87
672.57831	-0.38
672.58951	5.97
672.60072	3.02
672.61191	-1.68
672.62311	4.02
672.63431	5.07
672.6455	6.42
672.65669	1.22
672.66787	-2.33
672.67906	-0.98
672.69024	-3.13
672.70142	-2.13
672.7126	2.17
672.72377	-7.13
672.73494	-3.03
672.74611	2.87
672.75728	2.62
672.76845	7.42
672.77961	4.67
672.79077	-0.33
672.80193	-4.68
672.81308	10.22
672.82423	10.17
672.83539	10.62
672.84653	3.87
672.85768	-0.63
672.86882	2.92
672.87996	7.02
672.8911	1.07
672.90223	6.82
672.91337	2.57
672.9245	-0.13
672.93563	-1.63
672.94675	9.77
672.95788	13.77
672.969	-0.83
672.98011	4.52
672.99123	11.52
673.00234	7.47
673.01345	0.52
673.02456	-2.98
673.03567	2.77
673.04677	10.12
673.05787	-1.08
673.06897	-1.08
673.08007	-0.98
673.09116	0.37
673.10225	-10.13
673.11334	2.27
673.12443	13.22
673.13551	15.62
673.14659	7.97
673.15767	2.67
673.16875	3.97
673.17982	0.27
673.1909	-0.93
673.20196	3.17
673.21303	-1.13
673.2241	4.32
673.23516	12.42
673.24622	4.72
673.25727	6.07
673.26833	2.72
673.27938	8.52
673.29043	7.67
673.30148	17.62
673.31252	10.17
673.32356	3.72
673.3346	2.17
673.34564	3.17
673.35668	-1.63
673.36771	-5.88
673.37874	4.52
673.38977	9.07
673.40079	14.07
673.41181	5.72
673.42283	9.52
673.43385	1.67
673.44487	8.52
673.45588	-0.08
673.46689	-3.98
673.4779	8.47
673.4889	14.62
673.4999	5.92
673.51091	3.22
673.5219	5.87
673.5329	20.82
673.54389	12.52
673.55488	1.72
673.56587	12.32
673.57686	10.07
673.58784	2.72
673.59882	9.92
673.6098	-0.33
673.62077	12.47
673.63175	32.67
673.64272	16.27
673.65369	3.22
673.66465	5.27
673.67562	2.77
673.68658	8.27
673.69754	-2.48
673.70849	6.27
673.71945	12.47
673.7304	15.82
673.74135	24.42
673.75229	22.67
673.76324	24.67
673.77418	1.12
673.78512	6.47
673.79605	6.67
673.80699	12.42
673.81792	3.62
673.82885	10.62
673.83978	16.12
673.8507	15.12
673.86162	3.67
673.87254	1.62
673.88346	9.97
673.89437	6.27
673.90529	10.67
673.9162	16.27
673.9271	9.62
673.93801	12.77
673.94891	3.47
673.95981	4.22
673.97071	5.52
673.9816	6.82
673.99249	6.77
674.00338	9.17
674.01427	0.22
674.02516	1.27
674.03604	-5.58
674.04692	-0.63
674.0578	5.82
674.06867	5.47
674.07954	7.12
674.09042	22.47
674.10128	-0.93
674.11215	-8.68
674.12301	3.37
674.13387	7.62
674.14473	0.07
674.15559	-2.33
674.16644	1.37
674.17729	-3.63
674.18814	-1.93
674.19898	0.67
674.20983	-0.53
674.22067	0.52
674.23151	-0.08
674.24234	-7.13
674.25318	2.97
674.26401	20.52
674.27483	12.37
674.28566	-5.68
674.29648	-2.83
674.30731	-3.63
674.31812	-3.13
674.32894	-0.63
674.33975	11.42
674.35057	4.92
674.36137	2.27
674.37218	10.52
674.38299	-6.88
674.39379	-7.43
674.40459	12.52
674.41538	10.52
674.42618	3.32
674.43697	0.02
674.44776	-1.68
674.45854	3.67
674.46933	8.07
674.48011	6.17
674.49089	-2.28
674.50167	-2.08
674.51244	-0.18
674.52321	-6.78
674.53398	-13.63
674.54475	-10.43
674.55552	5.52
674.56628	6.17
674.57704	3.92
674.5878	4.32
674.59855	0.92
674.6093	4.87
674.62005	5.92
674.6308	5.47
674.64155	-2.38
674.65229	2.82
674.66303	6.22
674.67377	12.52
674.6845	11.77
674.69523	18.22
674.70596	11.97
674.71669	2.62
674.72742	-2.58
674.73814	-3.58
674.74886	0.07
674.75958	-0.08
674.77029	4.57
674.78101	-3.68
674.79172	6.97
674.80243	9.22
674.81313	6.77
674.82384	18.32
674.83454	3.67
674.84524	-2.13
674.85593	3.02
674.86663	7.57
674.87732	-1.63
674.888	1.92
674.89869	5.02
674.90937	8.77
674.92006	12.92
674.93073	12.92
674.94141	6.92
674.95208	6.62
674.96276	18.67
674.97343	14.62
674.98409	13.97
674.99476	16.67
675.00542	-1.18
675.01608	0.62
675.02673	-0.48
675.03739	2.32
675.04804	7.27
675.05869	12.82
675.06934	11.72
675.07998	15.32
675.09062	-9.68
675.10126	-10.48
675.1119	-0.13
675.12253	10.72
675.13317	10.97
675.1438	8.92
675.15442	7.97
675.16505	1.32
675.17567	7.82
675.18629	19.47
675.19691	11.77
675.20752	7.82
675.21813	5.52
675.22874	4.22
675.23935	11.02
675.24996	8.02
675.26056	13.12
675.27116	9.27
675.28176	5.32
675.29235	4.32
675.30295	5.77
675.31354	4.22
675.32412	0.67
675.33471	-7.98
675.34529	-3.13
675.35587	-4.43
675.36645	-8.63
675.37703	-4.63
675.3876	-1.43
675.39817	3.27
675.40874	1.57
675.41931	5.12
675.42987	13.32
675.44043	9.92
675.45099	2.82
675.46154	10.47
675.4721	7.47
675.48265	12.02
675.4932	15.82
675.50374	9.12
675.51429	0.47
675.52483	1.82
675.53537	-4.53
675.5459	3.32
675.55644	9.42
675.56697	4.57
675.5775	3.62
675.58803	1.57
675.59855	6.12
675.60907	0.42
675.61959	-1.53
675.63011	0.57
675.64062	-0.98
675.65113	-1.38
675.66164	10.47
675.67215	0.37
675.68265	6.47
675.69316	5.87
675.70366	2.72
675.71415	15.42
675.72465	22.12
675.73514	12.32
675.74563	15.87
675.75612	0.82
675.7666	-0.78
675.77708	1.77
675.78756	4.17
675.79804	-0.38
675.80852	13.37
675.81899	23.62
675.82946	10.57
675.83993	11.27
675.85039	12.67
675.86085	10.92
675.87131	15.77
675.88177	13.87
675.89223	12.12
675.90268	17.97
675.91313	12.52
675.92358	5.97
675.93402	1.47
675.94447	4.47
675.95491	13.62
675.96535	1.92
675.97578	6.07
675.98622	17.32
675.99665	-1.88
676.00707	5.92
676.0175	13.57
676.02792	9.07
676.03835	5.02
676.04876	5.07
676.05918	2.22
676.06959	5.77
676.08	19.07
676.09041	10.32
676.10082	-2.13
676.11122	5.87
676.12162	53.32
676.13202	99.12
676.14242	18.07
676.15281	1.02
676.16321	-3.63
676.17359	-2.78
676.18398	-6.43
676.19437	5.12
676.20475	1.47
676.21513	-2.58
676.2255	4.77
676.23588	13.42
676.24625	10.97
676.25662	1.47
676.26699	-5.38
676.27735	1.32
676.28771	17.52
676.29807	8.92
676.30843	7.62
676.31878	1.92
676.32914	4.77
676.33949	10.47
676.34983	12.27
676.36018	6.02
676.37052	-0.48
676.38086	-8.48
676.3912	-3.83
676.40153	4.32
676.41187	11.12
676.4222	4.27
676.43252	7.77
676.44285	16.32
676.45317	8.67
676.46349	-0.28
676.47381	3.87
676.48413	9.77
676.49444	12.62
676.50475	13.97
676.51506	6.97
676.52536	13.97
676.53567	4.72
676.54597	10.22
676.55626	9.92
676.56656	4.92
676.57685	6.57
676.58714	12.27
676.59743	10.47
676.60772	6.32
676.618	1.07
676.62828	-0.83
676.63856	-12.43
676.64884	-5.13
676.65911	-4.73
676.66938	-7.28
676.67965	1.67
676.68992	16.27
676.70018	16.47
676.71044	6.87
676.7207	24.12
676.73096	14.52
676.74121	7.62
676.75146	11.87
676.76171	17.92
676.77196	7.27
676.7822	0.87
676.79245	2.62
676.80269	8.72
676.81292	-8.03
676.82316	-5.58
676.83339	9.22
676.84362	22.02
676.85385	3.72
676.86407	9.82
676.87429	6.72
676.88451	10.92
676.89473	8.92
676.90494	-11.63
676.91516	-7.78
676.92537	-1.53
676.93557	7.32
676.94578	4.72
676.95598	-1.18
676.96618	-4.73
676.97638	-2.23
676.98657	2.02
676.99677	1.52
677.00696	8.52
677.01714	19.62
677.02733	9.77
677.03751	7.82
677.04769	4.82
677.05787	2.97
677.06805	3.02
677.07822	3.02
677.08839	7.52
677.09856	-2.63
677.10872	-1.03
677.11889	3.57
677.12905	9.27
677.13921	9.57
677.14936	2.77
677.15951	-0.58
677.16967	6.77
677.17981	14.47
677.18996	14.22
677.2001	-2.08
677.21025	-8.08
677.22038	1.82
677.23052	3.52
677.24065	-2.63
677.25078	5.92
677.26091	10.82
677.27104	7.12
677.28116	2.22
677.29129	2.97
677.3014	3.42
677.31152	23.77
677.32164	57.07
677.33175	2.77
677.34186	2.87
677.35196	6.47
677.36207	10.82
677.37217	13.77
677.38227	17.17
677.39236	13.77
677.40246	2.37
677.41255	-2.53
677.42264	5.37
677.43273	5.57
677.44281	4.82
677.45289	11.97
677.46297	-2.43
677.47305	-7.43
677.48313	-3.73
677.4932	4.77
677.50327	0.57
677.51334	0.17
677.5234	-1.13
677.53346	10.17
677.54352	7.57
677.55358	3.02
677.56364	11.37
677.57369	21.22
677.58374	5.22
677.59379	-7.28
677.60383	-3.33
677.61388	4.72
677.62392	3.57
677.63395	2.62
677.64399	9.02
677.65402	13.52
677.66405	8.52
677.67408	-2.43
677.68411	-0.33
677.69413	7.32
677.70415	11.17
677.71417	10.67
677.72419	-1.78
677.7342	1.42
677.74421	-2.73
677.75422	-4.43
677.76422	-0.73
677.77423	8.97
677.78423	14.87
677.79423	5.72
677.80422	11.67
677.81422	6.72
677.82421	-2.63
677.8342	-0.33
677.84418	-0.43
677.85417	2.37
677.86415	14.72
677.87413	2.77
677.88411	-3.68
677.89408	9.02
677.90405	8.12
677.91402	7.57
677.92399	10.02
677.93395	21.97
677.94391	11.32
677.95387	-3.33
677.96383	1.77
677.97378	7.82
677.98374	1.72
677.99369	3.17
678.00363	13.37
678.01358	-1.13
678.02352	2.42
678.03346	11.12
678.0434	2.52
678.05333	-1.63
678.06326	2.52
678.07319	0.47
678.08312	0.32
678.09305	17.77
678.10297	6.87
678.11289	-2.33
678.12281	8.17
678.13272	5.22
678.14264	-1.33
678.15255	2.72
678.16245	2.82
678.17236	0.97
678.18226	2.87
678.19216	0.67
678.20206	-6.53
678.21196	-2.78
678.22185	9.17
678.23174	8.07
678.24163	7.77
678.25151	9.67
678.2614	20.87
678.27128	20.97
678.28116	10.97
678.29103	11.57
678.30091	6.37
678.31078	-0.23
678.32065	-2.53
678.33051	3.42
678.34037	2.12
678.35024	-5.83
678.36009	-2.18
678.36995	2.57
678.37981	3.92
678.38966	-7.23
678.39951	-0.53
678.40935	3.32
678.4192	0.82
678.42904	-6.78
678.43888	1.77
678.44871	1.12
678.45855	7.67
678.46838	10.17
678.47821	-1.18
678.48804	2.42
678.49786	19.52
678.50768	24.17
678.5175	12.07
678.52732	14.37
678.53713	10.17
678.54694	6.92
678.55675	-2.88
678.56656	-4.68
678.57637	-3.03
678.58617	1.72
678.59597	13.97
678.60577	7.72
678.61556	-6.18
678.62535	5.22
678.63514	18.92
678.64493	12.07
678.65472	4.67
678.6645	13.77
678.67428	5.52
678.68406	7.02
678.69383	1.82
678.7036	-0.23
678.71337	4.42
678.72314	7.62
678.73291	6.02
678.74267	-1.13
678.75243	-1.83
678.76219	-3.93
678.77195	2.92
678.7817	-1.98
678.79145	-0.23
678.8012	5.67
678.81094	-1.03
678.82069	-1.33
678.83043	37.02
678.84017	77.92
678.8499	2.57
678.85964	3.62
678.86937	6.32
678.87909	10.92
678.88882	6.62
678.89854	1.42
678.90827	5.82
678.91798	2.32
678.9277	-0.33
678.93742	-4.88
678.94713	3.12
678.95684	3.72
678.96654	10.97
678.97625	7.47
678.98595	6.97
678.99565	-2.08
679.00534	-7.43
679.01504	-3.63
679.02473	-2.78
679.03442	-4.08
679.04411	10.27
679.05379	7.17
679.06347	-3.63
679.07315	-0.18
679.08283	6.07
679.0925	1.12
679.10218	6.52
679.11185	-1.08
679.12151	-2.88
679.13118	6.47
679.14084	-2.53
679.1505	0.67
679.16016	1.32
679.16981	-4.78
679.17946	10.32
679.18911	9.42
679.19876	-1.68
679.20841	10.52
679.21805	14.77
679.22769	7.97
679.23733	11.02
679.24696	16.57
679.2566	5.42
679.26623	4.37
679.27585	4.42
679.28548	-3.48
679.2951	7.37
679.30472	-2.83
679.31434	-8.58
679.32396	-4.78
679.33357	-8.13
679.34318	13.42
679.35279	24.87
679.3624	6.37
679.372	8.92
679.3816	11.17
679.3912	-0.18
679.40079	21.77
679.41039	15.52
679.41998	3.67
679.42957	2.52
679.43915	-5.73
679.44874	0.02
679.45832	10.82
679.4679	3.32
679.47747	0.12
679.48705	-2.23
679.49662	7.62
679.50619	6.37
679.51575	0.97
679.52532	3.27
679.53488	9.07
679.54444	2.37
679.554	2.82
679.56355	5.07
679.5731	8.32
679.58265	2.52
679.5922	-2.38
679.60174	7.97
679.61129	12.82
679.62083	1.42
679.63036	-9.13
679.6399	-0.48
679.64943	11.57
679.65896	7.27
679.66849	2.27
679.67801	8.27
679.68753	10.97
679.69705	17.22
679.70657	28.07
679.71609	17.32
679.7256	15.77
679.73511	13.52
679.74462	0.67
679.75412	-0.58
679.76362	11.57
679.77312	12.77
679.78262	2.42
679.79212	5.57
679.80161	9.52
679.8111	-2.38
679.82059	-1.83
679.83007	11.72
679.83956	11.57
679.84904	5.72
679.85852	11.02
679.86799	1.27
679.87747	7.67
679.88694	1.02
679.8964	-2.23
679.90587	-2.98
679.91533	7.42
679.92479	4.07
679.93425	1.27
679.94371	10.92
679.95316	12.72
679.96261	12.07
679.97206	7.37
679.98151	3.62
679.99095	-0.78
680.00039	-1.53
680.00983	1.42
680.01927	5.52
680.0287	1.42
680.03814	17.72
680.04756	-0.48
680.05699	-3.83
680.06641	3.87
680.07584	-1.48
680.08526	-6.53
680.09467	2.57
680.10409	-0.28
680.1135	-5.58
680.12291	0.12
680.13232	8.42
680.14172	15.87
680.15112	10.17
680.16052	3.47
680.16992	7.62
680.17931	8.97
680.18871	7.97
680.1981	-4.13
680.20748	-1.63
680.21687	-0.18
