Data from HR4C25001_14-15-10-412.txt Node
Date: Mon Jun 15 14:15:10 CDT 2026
User: jam28248
Spectrometer: HR4C2500
Trigger mode: 4
Integration Time (sec): 7.500000E-2
Scans to average: 20
Electric dark correction enabled: true
Nonlinearity correction enabled: false
Boxcar width: 0
XAxis mode: Wavelengths
Number of Pixels in Spectrum: 3648
>>>>>Begin Spectral Data<<<<<
629.66646	-18.52
629.6848	-18.52
629.70313	-18.52
629.72147	-49.07
629.7398	-34.97
629.75812	-0.92
629.77645	1.48
629.79477	8.13
629.81309	-0.37
629.83141	-5.87
629.84972	2.33
629.86803	1.33
629.88634	12.93
629.90465	-6.12
629.92295	-7.37
629.94126	-6.52
629.95956	0.23
629.97785	0.73
629.99615	0.73
630.01444	16.73
630.03273	14.28
630.05102	14.93
630.0693	5.33
630.08759	13.03
630.10587	1.68
630.12415	-0.72
630.14242	6.78
630.16069	-5.67
630.17896	1.58
630.19723	5.33
630.2155	20.68
630.23376	64.28
630.25202	23.33
630.27028	20.98
630.28854	16.38
630.30679	2.63
630.32504	1.48
630.34329	7.88
630.36153	10.48
630.37978	21.53
630.39802	8.18
630.41626	3.43
630.43449	-1.17
630.45273	3.68
630.47096	10.33
630.48919	5.78
630.50741	13.53
630.52564	5.73
630.54386	13.43
630.56208	24.83
630.58029	8.58
630.59851	3.93
630.61672	4.28
630.63493	16.18
630.65313	9.58
630.67134	7.13
630.68954	2.98
630.70774	12.08
630.72594	18.63
630.74413	3.53
630.76232	-4.57
630.78051	-0.82
630.7987	7.88
630.81688	15.28
630.83507	22.43
630.85325	12.38
630.87142	4.63
630.8896	6.68
630.90777	1.93
630.92594	-4.67
630.94411	15.58
630.96227	22.88
630.98043	34.43
630.99859	14.78
631.01675	9.38
631.03491	1.38
631.05306	-4.07
631.07121	6.93
631.08936	8.33
631.1075	1.58
631.12564	9.43
631.14379	9.68
631.16192	16.68
631.18006	13.03
631.19819	12.53
631.21632	6.28
631.23445	-2.62
631.25258	0.83
631.2707	8.98
631.28882	9.68
631.30694	9.48
631.32505	6.88
631.34317	11.98
631.36128	8.48
631.37939	14.08
631.39749	6.48
631.4156	2.13
631.4337	-3.32
631.4518	6.28
631.46989	-2.97
631.48799	-1.77
631.50608	2.48
631.52417	-1.72
631.54225	4.53
631.56034	4.28
631.57842	5.28
631.5965	1.73
631.61457	-10.87
631.63265	-1.22
631.65072	4.18
631.66879	-3.42
631.68685	13.68
631.70492	23.93
631.72298	13.68
631.74104	0.18
631.7591	1.03
631.77715	3.48
631.7952	11.33
631.81325	14.08
631.8313	0.13
631.84934	15.48
631.86739	20.33
631.88543	7.18
631.90346	8.33
631.9215	-2.87
631.93953	4.78
631.95756	1.23
631.97559	9.38
631.99361	-1.22
632.01163	-2.97
632.02965	7.03
632.04767	13.63
632.06569	15.78
632.0837	6.98
632.10171	-0.22
632.11972	-6.42
632.13772	0.88
632.15573	15.23
632.17373	3.63
632.19172	-4.97
632.20972	-0.52
632.22771	-4.17
632.2457	1.98
632.26369	6.43
632.28168	11.28
632.29966	1.83
632.31764	7.23
632.33562	3.83
632.35359	8.73
632.37157	9.33
632.38954	8.08
632.40751	-0.62
632.42547	-8.67
632.44344	12.23
632.4614	9.08
632.47936	0.48
632.49731	-0.27
632.51527	3.78
632.53322	11.03
632.55117	9.28
632.56911	3.33
632.58706	-0.62
632.605	1.03
632.62294	5.13
632.64087	5.38
632.65881	-6.82
632.67674	3.88
632.69467	-1.22
632.7126	-1.72
632.73052	6.98
632.74844	7.23
632.76636	9.28
632.78428	12.88
632.80219	21.83
632.8201	25.98
632.83801	8.88
632.85592	5.03
632.87383	15.98
632.89173	6.18
632.90963	0.58
632.92753	3.23
632.94542	5.23
632.96331	9.43
632.9812	9.48
632.99909	7.18
633.01697	1.88
633.03486	8.43
633.05274	4.23
633.07061	8.83
633.08849	6.68
633.10636	8.58
633.12423	16.48
633.1421	9.68
633.15997	21.63
633.17783	8.73
633.19569	8.13
633.21355	12.78
633.2314	16.48
633.24926	-3.27
633.26711	1.68
633.28495	7.23
633.3028	-2.67
633.32064	3.08
633.33848	12.28
633.35632	20.08
633.37416	19.43
633.39199	7.28
633.40982	-3.97
633.42765	6.93
633.44548	3.03
633.4633	-4.87
633.48112	-1.97
633.49894	-5.62
633.51676	2.53
633.53457	1.13
633.55238	7.83
633.57019	2.03
633.588	-2.82
633.6058	-4.62
633.6236	6.88
633.6414	7.93
633.6592	-2.12
633.67699	-7.52
633.69478	1.48
633.71257	14.48
633.73036	17.28
633.74815	2.33
633.76593	-2.42
633.78371	2.83
633.80148	1.53
633.81926	0.68
633.83703	-1.97
633.8548	-16.97
633.87257	-15.82
633.89033	-5.07
633.90809	6.08
633.92585	4.73
633.94361	-1.02
633.96137	4.53
633.97912	9.63
633.99687	-10.32
634.01462	4.38
634.03236	14.58
634.0501	15.38
634.06784	0.33
634.08558	11.88
634.10332	11.53
634.12105	-1.67
634.13878	11.08
634.15651	10.78
634.17423	7.28
634.19196	1.18
634.20968	2.28
634.22739	11.33
634.24511	11.93
634.26282	11.68
634.28053	19.18
634.29824	10.03
634.31595	6.73
634.33365	6.03
634.35135	-3.82
634.36905	-7.72
634.38675	7.18
634.40444	8.33
634.42213	-1.62
634.43982	3.58
634.4575	-0.47
634.47519	12.33
634.49287	21.33
634.51055	5.03
634.52822	2.68
634.5459	1.83
634.56357	1.33
634.58124	-10.22
634.59891	5.63
634.61657	9.93
634.63423	12.38
634.65189	15.08
634.66955	3.78
634.6872	11.68
634.70485	4.43
634.7225	4.38
634.74015	12.83
634.75779	4.78
634.77544	0.83
634.79307	-2.72
634.81071	12.83
634.82835	7.48
634.84598	2.18
634.86361	-3.52
634.88123	9.63
634.89886	3.43
634.91648	0.53
634.9341	1.08
634.95172	10.68
634.96933	9.28
634.98695	10.88
635.00456	3.43
635.02216	11.53
635.03977	12.83
635.05737	3.68
635.07497	0.93
635.09257	7.93
635.11016	10.93
635.12776	7.08
635.14535	-0.57
635.16294	9.88
635.18052	6.38
635.1981	6.38
635.21569	9.18
635.23326	5.83
635.25084	12.83
635.26841	5.03
635.28598	5.93
635.30355	1.33
635.32112	-5.32
635.33868	-12.37
635.35624	-8.17
635.3738	-2.87
635.39136	-3.72
635.40891	-4.32
635.42646	5.03
635.44401	6.58
635.46155	1.43
635.4791	3.93
635.49664	6.78
635.51418	19.13
635.53171	4.48
635.54925	2.68
635.56678	3.13
635.58431	6.33
635.60184	18.98
635.61936	17.58
635.63688	-0.02
635.6544	7.38
635.67192	0.58
635.68943	3.53
635.70694	4.98
635.72445	5.48
635.74196	-2.72
635.75946	-5.92
635.77697	-1.17
635.79447	0.88
635.81196	10.03
635.82946	0.13
635.84695	-9.52
635.86444	5.08
635.88193	6.78
635.89941	14.88
635.91689	7.53
635.93437	1.78
635.95185	-3.37
635.96933	-5.02
635.9868	11.38
636.00427	27.58
636.02174	9.93
636.0392	0.68
636.05666	13.58
636.07412	4.48
636.09158	0.38
636.10904	-0.17
636.12649	6.28
636.14394	3.38
636.16139	17.68
636.17883	0.58
636.19628	-3.02
636.21372	-3.32
636.23116	1.88
636.24859	-3.42
636.26602	-1.22
636.28345	8.18
636.30088	7.83
636.31831	-0.72
636.33573	-0.77
636.35315	5.03
636.37057	5.93
636.38799	-0.27
636.4054	10.33
636.42281	11.38
636.44022	5.23
636.45763	-2.97
636.47503	-4.92
636.49243	-5.02
636.50983	-3.52
636.52723	2.23
636.54462	-1.17
636.56201	-0.52
636.5794	-6.12
636.59679	-6.12
636.61417	-0.22
636.63155	-1.47
636.64893	16.23
636.66631	13.78
636.68368	0.38
636.70106	-5.22
636.71843	-8.92
636.73579	-4.07
636.75316	2.48
636.77052	2.28
636.78788	5.93
636.80524	-0.07
636.82259	-8.42
636.83994	-8.67
636.85729	-7.72
636.87464	-9.87
636.89198	-3.77
636.90933	12.78
636.92667	9.93
636.944	-0.92
636.96134	-5.37
636.97867	-3.62
636.996	-1.37
637.01333	1.03
637.03066	1.48
637.04798	-9.22
637.0653	-0.32
637.08262	2.78
637.09993	-1.87
637.11724	-4.62
637.13455	5.33
637.15186	12.08
637.16917	8.28
637.18647	2.83
637.20377	9.43
637.22107	7.28
637.23837	6.98
637.25566	23.93
637.27295	2.33
637.29024	7.53
637.30752	-1.87
637.32481	-1.17
637.34209	6.28
637.35937	18.33
637.37664	11.48
637.39392	7.13
637.41119	1.33
637.42846	3.28
637.44572	-5.62
637.46299	4.13
637.48025	20.83
637.49751	4.08
637.51476	-0.37
637.53202	9.33
637.54927	2.68
637.56652	1.08
637.58376	1.13
637.60101	-1.92
637.61825	6.68
637.63549	5.13
637.65273	2.68
637.66996	0.08
637.68719	2.98
637.70442	5.18
637.72165	6.83
637.73887	9.73
637.7561	11.33
637.77332	9.13
637.79053	3.33
637.80775	10.08
637.82496	3.03
637.84217	6.73
637.85938	3.68
637.87658	5.63
637.89378	3.08
637.91098	-2.37
637.92818	-4.77
637.94538	8.33
637.96257	14.83
637.97976	8.08
637.99695	3.83
638.01413	-5.82
638.03132	-3.87
638.0485	0.13
638.06567	-7.87
638.08285	2.03
638.10002	3.78
638.11719	2.68
638.13436	0.68
638.15153	1.83
638.16869	-9.62
638.18585	-5.77
638.20301	-7.57
638.22016	-13.57
638.23732	-16.57
638.25447	-9.27
638.27162	-2.27
638.28876	-8.62
638.30591	-8.52
638.32305	1.23
638.34019	9.28
638.35732	12.03
638.37446	18.28
638.39159	-1.87
638.40872	-5.27
638.42584	0.78
638.44297	-0.07
638.46009	-2.67
638.47721	0.48
638.49432	10.08
638.51144	5.83
638.52855	6.43
638.54566	-5.72
638.56276	-2.32
638.57987	-0.82
638.59697	2.48
638.61407	1.18
638.63117	-0.47
638.64826	0.23
638.66535	-0.27
638.68244	-2.67
638.69953	7.93
638.71661	10.33
638.7337	-0.47
638.75078	1.48
638.76785	2.83
638.78493	-1.02
638.802	-4.02
638.81907	2.33
638.83614	5.18
638.8532	10.53
638.87026	1.28
638.88732	-9.07
638.90438	-1.97
638.92144	6.33
638.93849	7.68
638.95554	7.83
638.97259	2.08
638.98963	9.63
639.00668	14.03
639.02372	5.53
639.04075	13.08
639.05779	11.23
639.07482	4.78
639.09185	9.13
639.10888	-11.87
639.12591	-15.17
639.14293	-3.02
639.15995	-1.02
639.17697	17.38
639.19398	20.58
639.211	22.88
639.22801	13.38
639.24502	0.28
639.26202	-0.77
639.27903	-3.62
639.29603	3.53
639.31303	12.73
639.33002	-4.97
639.34702	1.53
639.36401	3.08
639.381	-3.37
639.39798	0.08
639.41497	7.83
639.43195	12.38
639.44893	-0.47
639.4659	7.13
639.48288	11.23
639.49985	11.13
639.51682	4.03
639.53379	-6.02
639.55075	-10.52
639.56771	-18.37
639.58467	-7.07
639.60163	0.18
639.61858	2.43
639.63553	5.78
639.65248	5.53
639.66943	-9.07
639.68638	-5.87
639.70332	5.08
639.72026	9.58
639.73719	-0.22
639.75413	8.68
639.77106	20.28
639.78799	28.78
639.80492	22.98
639.82184	5.38
639.83877	-0.72
639.85569	5.88
639.8726	2.18
639.88952	7.13
639.90643	-3.62
639.92334	6.13
639.94025	3.48
639.95716	7.48
639.97406	4.88
639.99096	10.83
640.00786	2.93
640.02475	1.98
640.04165	-1.27
640.05854	1.73
640.07542	1.48
640.09231	6.58
640.10919	8.03
640.12607	6.58
640.14295	-5.12
640.15983	-4.77
640.1767	-4.32
640.19357	-3.62
640.21044	0.38
640.22731	7.18
640.24417	8.18
640.26103	12.68
640.27789	11.58
640.29475	1.23
640.3116	-10.97
640.32845	-4.72
640.3453	2.78
640.36215	-0.22
640.37899	4.03
640.39583	16.88
640.41267	22.13
640.42951	-0.22
640.44634	-12.12
640.46317	0.03
640.48	-2.72
640.49683	-7.27
640.51365	-5.97
640.53048	-2.72
640.5473	2.28
640.56411	2.08
640.58093	11.88
640.59774	10.98
640.61455	-2.87
640.63136	-1.27
640.64816	-2.92
640.66496	-1.42
640.68176	11.03
640.69856	-3.57
640.71535	-1.47
640.73215	-2.22
640.74894	-1.52
640.76572	13.83
640.78251	9.93
640.79929	1.28
640.81607	5.13
640.83285	4.13
640.84963	10.38
640.8664	12.88
640.88317	20.78
640.89994	1.23
640.9167	2.88
640.93346	-1.02
640.95022	-5.07
640.96698	2.83
640.98374	-0.27
641.00049	-8.07
641.01724	-6.97
641.03399	-10.42
641.05074	-8.87
641.06748	-5.22
641.08422	7.83
641.10096	2.78
641.11769	11.28
641.13443	4.28
641.15116	0.28
641.16789	-3.72
641.18461	-6.27
641.20134	12.33
641.21806	10.93
641.23478	-1.27
641.25149	2.88
641.26821	12.18
641.28492	2.38
641.30163	3.33
641.31833	-5.97
641.33504	-0.37
641.35174	-0.62
641.36844	6.63
641.38514	7.18
641.40183	3.23
641.41852	4.58
641.43521	6.08
641.4519	23.53
641.46858	14.98
641.48526	0.48
641.50194	3.13
641.51862	0.08
641.53529	3.13
641.55197	13.53
641.56864	15.73
641.5853	0.88
641.60197	-0.17
641.61863	3.08
641.63529	-5.12
641.65195	-3.77
641.6686	9.38
641.68526	9.58
641.70191	11.23
641.71855	15.98
641.7352	13.73
641.75184	3.68
641.76848	-1.87
641.78512	0.03
641.80175	-2.37
641.81839	9.53
641.83502	12.88
641.85164	11.33
641.86827	15.38
641.88489	6.73
641.90151	-1.77
641.91813	1.88
641.93475	7.28
641.95136	2.88
641.96797	-4.47
641.98458	-11.97
642.00119	2.73
642.01779	4.38
642.03439	6.03
642.05099	2.93
642.06758	-5.62
642.08418	0.68
642.10077	2.08
642.11736	6.58
642.13394	3.58
642.15053	3.83
642.16711	-4.27
642.18369	-4.52
642.20026	8.28
642.21684	18.03
642.23341	12.73
642.24998	10.33
642.26654	16.18
642.28311	11.93
642.29967	1.78
642.31623	-6.22
642.33279	2.98
642.34934	-1.62
642.36589	-9.32
642.38244	-11.07
642.39899	47.93
642.41553	123.68
642.43207	15.98
642.44861	-13.52
642.46515	1.03
642.48169	5.23
642.49822	1.63
642.51475	5.03
642.53127	-0.67
642.5478	-1.62
642.56432	10.03
642.58084	8.78
642.59736	4.33
642.61387	8.38
642.63039	14.88
642.6469	15.23
642.6634	20.18
642.67991	3.03
642.69641	5.78
642.71291	-0.07
642.72941	9.53
642.74591	12.23
642.7624	-0.42
642.77889	0.13
642.79538	-7.22
642.81186	-6.87
642.82834	-9.22
642.84483	-3.47
642.8613	-0.42
642.87778	-5.57
642.89425	8.78
642.91072	33.83
642.92719	1.48
642.94366	5.23
642.96012	14.88
642.97658	4.23
642.99304	6.68
643.0095	8.28
643.02595	0.08
643.0424	-1.32
643.05885	7.13
643.0753	-3.47
643.09174	-11.67
643.10818	-7.52
643.12462	-5.17
643.14106	-2.07
643.15749	1.18
643.17392	5.03
643.19035	22.38
643.20678	15.58
643.2232	1.83
643.23962	13.53
643.25604	7.98
643.27246	-3.22
643.28887	0.98
643.30528	9.23
643.32169	12.08
643.3381	0.48
643.35451	6.83
643.37091	14.58
643.38731	9.38
643.4037	-3.42
643.4201	-1.02
643.43649	8.63
643.45288	18.33
643.46927	6.83
643.48565	2.43
643.50204	11.13
643.51842	7.28
643.53479	-4.47
643.55117	6.73
643.56754	3.03
643.58391	7.03
643.60028	1.03
643.61664	6.38
643.63301	7.73
643.64937	7.78
643.66572	2.18
643.68208	-3.17
643.69843	-0.12
643.71478	-8.17
643.73113	-3.37
643.74748	-3.07
643.76382	3.48
643.78016	0.53
643.7965	8.63
643.81283	5.58
643.82917	8.63
643.8455	1.88
643.86183	13.78
643.87815	14.63
643.89448	11.38
643.9108	12.73
643.92712	7.63
643.94343	7.68
643.95974	-3.52
643.97606	-8.22
643.99236	4.68
644.00867	15.38
644.02497	4.73
644.04128	-1.82
644.05758	1.68
644.07387	9.68
644.09017	7.78
644.10646	6.23
644.12275	2.13
644.13903	1.68
644.15532	3.28
644.1716	3.03
644.18788	25.33
644.20415	10.73
644.22043	9.28
644.2367	12.03
644.25297	2.03
644.26924	5.98
644.2855	9.48
644.30176	5.73
644.31802	4.83
644.33428	12.33
644.35054	17.88
644.36679	2.53
644.38304	1.88
644.39928	7.28
644.41553	10.58
644.43177	-0.02
644.44801	-7.02
644.46425	-4.87
644.48048	1.88
644.49672	3.98
644.51295	5.53
644.52917	3.93
644.5454	13.23
644.56162	1.93
644.57784	6.63
644.59406	5.28
644.61028	5.93
644.62649	4.73
644.6427	5.03
644.65891	-0.92
644.67511	-8.67
644.69132	3.48
644.70752	9.73
644.72372	13.38
644.73991	5.08
644.7561	9.78
644.7723	19.78
644.78848	31.58
644.80467	19.63
644.82085	5.68
644.83703	11.93
644.85321	16.73
644.86939	10.18
644.88556	12.43
644.90173	17.68
644.9179	23.78
644.93407	23.98
644.95023	32.93
644.96639	17.23
644.98255	13.78
644.99871	5.38
645.01486	1.28
645.03102	12.18
645.04716	15.03
645.06331	12.58
645.07946	36.18
645.0956	72.73
645.11174	15.83
645.12787	19.98
645.14401	6.33
645.16014	14.13
645.17627	10.33
645.1924	8.13
645.20852	20.08
645.22464	9.13
645.24076	18.58
645.25688	32.78
645.27299	16.33
645.28911	13.28
645.30522	1.38
645.32132	8.13
645.33743	10.68
645.35353	8.58
645.36963	3.58
645.38573	10.43
645.40182	5.78
645.41792	-0.37
645.43401	-4.57
645.45009	0.08
645.46618	7.13
645.48226	1.48
645.49834	4.53
645.51442	-8.72
645.5305	-3.27
645.54657	1.08
645.56264	4.78
645.57871	1.18
645.59477	7.13
645.61084	1.23
645.6269	8.58
645.64296	9.93
645.65901	9.43
645.67507	9.98
645.69112	6.93
645.70716	1.33
645.72321	-1.92
645.73925	5.53
645.7553	9.08
645.77133	-3.92
645.78737	4.63
645.8034	15.08
645.81944	20.58
645.83546	5.48
645.85149	22.28
645.86751	9.83
645.88354	-0.52
645.89955	-3.62
645.91557	1.83
645.93159	-5.32
645.9476	1.38
645.96361	5.38
645.97961	9.78
645.99562	8.43
646.01162	11.08
646.02762	8.13
646.04361	3.28
646.05961	-4.92
646.0756	-1.02
646.09159	10.93
646.10758	-0.57
646.12356	8.03
646.13954	12.38
646.15552	8.38
646.1715	18.48
646.18748	12.83
646.20345	3.88
646.21942	-0.97
646.23539	15.48
646.25135	18.73
646.26731	3.63
646.28327	9.73
646.29923	0.88
646.31519	15.88
646.33114	20.43
646.34709	15.53
646.36304	3.18
646.37898	-0.37
646.39493	-9.22
646.41087	-4.27
646.4268	-3.77
646.44274	-1.07
646.45867	3.38
646.4746	11.78
646.49053	5.88
646.50646	1.58
646.52238	-8.42
646.5383	-7.92
646.55422	-4.17
646.57014	-0.32
646.58605	2.48
646.60196	10.68
646.61787	8.33
646.63377	6.73
646.64968	8.58
646.66558	2.78
646.68148	-4.07
646.69737	4.78
646.71327	3.63
646.72916	-1.02
646.74505	3.63
646.76093	12.28
646.77682	7.03
646.7927	-2.62
646.80858	0.48
646.82446	-6.62
646.84033	-1.17
646.8562	2.68
646.87207	4.93
646.88794	7.78
646.9038	-3.17
646.91966	2.18
646.93552	4.78
646.95138	0.78
646.96723	7.38
646.98309	15.83
646.99894	5.88
647.01478	5.83
647.03063	15.43
647.04647	2.53
647.06231	-2.97
647.07815	-6.17
647.09398	-2.47
647.10981	3.48
647.12564	-3.62
647.14147	1.48
647.1573	14.43
647.17312	6.03
647.18894	0.28
647.20476	-10.22
647.22057	-10.67
647.23638	-1.42
647.25219	0.48
647.268	-1.02
647.28381	-2.32
647.29961	7.63
647.31541	3.58
647.33121	-0.37
647.34701	9.08
647.3628	5.18
647.37859	9.33
647.39438	4.18
647.41016	3.78
647.42595	2.63
647.44173	4.28
647.45751	2.43
647.47328	5.28
647.48905	0.88
647.50483	10.73
647.52059	8.58
647.53636	-0.22
647.55212	-6.62
647.56789	12.03
647.58364	43.38
647.5994	6.93
647.61515	1.03
647.63091	6.18
647.64665	2.43
647.6624	2.58
647.67814	-4.77
647.69389	-10.52
647.70963	-8.62
647.72536	-15.47
647.7411	-10.52
647.75683	-3.77
647.77256	5.28
647.78828	2.38
647.80401	-2.37
647.81973	2.33
647.83545	7.28
647.85117	6.63
647.86688	-0.92
647.88259	-1.97
647.8983	5.78
647.91401	13.43
647.92971	13.63
647.94542	1.88
647.96112	3.63
647.97681	10.88
647.99251	6.53
648.0082	9.03
648.02389	9.83
648.03958	-0.02
648.05526	-0.02
648.07095	2.48
648.08663	2.33
648.1023	-5.07
648.11798	-5.37
648.13365	-8.82
648.14932	-0.12
648.16499	1.73
648.18066	-1.82
648.19632	-3.22
648.21198	-2.62
648.22764	0.43
648.24329	7.18
648.25895	10.48
648.2746	0.53
648.29025	3.53
648.30589	7.03
648.32153	5.58
648.33718	1.28
648.35281	12.83
648.36845	34.48
648.38408	69.63
648.39971	6.93
648.41534	-3.47
648.43097	6.13
648.44659	8.13
648.46221	16.28
648.47783	8.58
648.49345	-6.97
648.50906	5.08
648.52467	8.68
648.54028	-3.52
648.55589	-6.02
648.57149	13.23
648.5871	5.18
648.6027	4.03
648.61829	7.53
648.63389	5.83
648.64948	8.78
648.66507	6.38
648.68065	-2.02
648.69624	7.53
648.71182	22.58
648.7274	23.93
648.74298	19.13
648.75855	24.68
648.77412	20.43
648.78969	0.78
648.80526	-7.02
648.82083	-0.07
648.83639	8.18
648.85195	-0.87
648.8675	2.28
648.88306	0.08
648.89861	1.18
648.91416	-4.32
648.92971	2.53
648.94526	14.98
648.9608	19.43
648.97634	13.33
648.99188	8.43
649.00741	4.88
649.02294	2.63
649.03847	1.63
649.054	-3.47
649.06953	4.78
649.08505	-0.92
649.10057	6.38
649.11609	-3.22
649.13161	6.78
649.14712	5.28
649.16263	1.48
649.17814	-2.37
649.19364	3.58
649.20915	19.23
649.22465	20.48
649.24015	14.68
649.25564	19.63
649.27114	11.28
649.28663	2.63
649.30212	0.83
649.3176	1.58
649.33309	-5.47
649.34857	2.63
649.36405	9.58
649.37952	14.73
649.395	10.23
649.41047	14.68
649.42594	7.83
649.4414	0.98
649.45687	5.38
649.47233	-3.72
649.48779	1.83
649.50324	11.68
649.5187	16.83
649.53415	12.93
649.5496	13.68
649.56505	14.33
649.58049	10.73
649.59593	4.78
649.61137	7.28
649.62681	11.38
649.64224	1.28
649.65768	-1.57
649.67311	14.68
649.68853	22.78
649.70396	11.83
649.71938	11.58
649.7348	7.08
649.75022	23.33
649.76563	6.78
649.78105	8.33
649.79646	-2.67
649.81186	6.63
649.82727	9.98
649.84267	1.88
649.85807	8.53
649.87347	-0.47
649.88886	2.63
649.90426	7.43
649.91965	5.38
649.93504	-1.27
649.95042	7.38
649.9658	-1.62
649.98119	3.38
649.99656	8.08
650.01194	0.18
650.02731	-1.92
650.04268	0.63
650.05805	1.23
650.07342	1.63
650.08878	9.73
650.10414	11.73
650.1195	-4.07
650.13486	-2.92
650.15021	-0.42
650.16556	8.83
650.18091	8.43
650.19626	10.78
650.2116	10.68
650.22694	6.43
650.24228	12.43
650.25762	6.78
650.27295	3.33
650.28828	-0.47
650.30361	10.63
650.31894	-0.02
650.33426	-4.82
650.34958	0.33
650.3649	22.53
650.38022	13.08
650.39553	-1.82
650.41085	1.93
650.42616	4.13
650.44146	5.93
650.45677	2.73
650.47207	7.08
650.48737	19.33
650.50267	-0.02
650.51796	-5.12
650.53325	3.13
650.54854	13.43
650.56383	10.58
650.57911	5.08
650.5944	5.78
650.60968	4.33
650.62495	8.58
650.64023	9.68
650.6555	-4.12
650.67077	-4.07
650.68604	2.63
650.70131	6.73
650.71657	3.38
650.73183	9.98
650.74709	8.83
650.76234	4.23
650.77759	7.33
650.79285	10.58
650.80809	9.03
650.82334	3.73
650.83858	0.73
650.85382	7.08
650.86906	10.68
650.8843	20.43
650.89953	6.93
650.91476	3.88
650.92999	-2.37
650.94522	3.63
650.96044	7.68
650.97566	6.33
650.99088	-0.27
651.00609	-2.82
651.02131	-0.47
651.03652	8.13
651.05173	4.23
651.06693	-11.72
651.08214	-6.57
651.09734	-4.12
651.11254	-1.42
651.12773	-3.62
651.14293	6.58
651.15812	-0.22
651.17331	2.98
651.1885	12.13
651.20368	-3.87
651.21886	-9.72
651.23404	10.43
651.24922	10.38
651.26439	6.93
651.27956	5.43
651.29473	0.68
651.3099	10.88
651.32507	-10.67
651.34023	-3.27
651.35539	-2.02
651.37054	-6.87
651.3857	-15.72
651.40085	-1.22
651.416	1.98
651.43115	-2.22
651.44629	-6.07
651.46144	-9.62
651.47658	2.88
651.49171	21.93
651.50685	13.43
651.52198	6.48
651.53711	-0.72
651.55224	-4.57
651.56736	2.83
651.58249	9.13
651.59761	12.13
651.61273	-10.32
651.62784	3.03
651.64295	1.43
651.65806	0.13
651.67317	0.48
651.68828	3.08
651.70338	7.98
651.71848	15.78
651.73358	19.33
651.74868	-1.82
651.76377	3.38
651.77886	3.33
651.79395	0.63
651.80904	-3.52
651.82412	11.88
651.8392	1.88
651.85428	3.23
651.86935	8.68
651.88443	14.18
651.8995	1.93
651.91457	-3.27
651.92963	2.93
651.9447	21.18
651.95976	8.48
651.97482	4.18
651.98988	6.73
652.00493	-1.37
652.01998	3.53
652.03503	16.83
652.05008	24.33
652.06512	59.38
652.08016	4.68
652.0952	3.98
652.11024	28.38
652.12527	10.23
652.14031	3.63
652.15534	5.78
652.17036	15.18
652.18539	3.03
652.20041	9.78
652.21543	10.63
652.23045	0.53
652.24546	5.53
652.26047	14.98
652.27548	8.23
652.29049	5.78
652.3055	4.68
652.3205	10.43
652.3355	6.08
652.3505	-1.57
652.36549	7.33
652.38048	13.78
652.39547	13.33
652.41046	9.63
652.42545	21.03
652.44043	15.63
652.45541	1.53
652.47039	10.48
652.48536	2.98
652.50034	-5.22
652.51531	-7.52
652.53028	0.48
652.54524	2.88
652.5602	1.63
652.57517	-7.67
652.59012	29.13
652.60508	74.08
652.62003	11.58
652.63498	0.33
652.64993	-1.77
652.66488	-3.27
652.67982	6.78
652.69476	10.73
652.7097	-2.32
652.72464	-3.67
652.73957	1.48
652.7545	6.43
652.76943	21.98
652.78436	4.38
652.79928	5.48
652.8142	9.58
652.82912	3.38
652.84404	-0.62
652.85895	-4.42
652.87387	4.58
652.88877	17.88
652.90368	14.13
652.91859	-5.52
652.93349	1.83
652.94839	6.43
652.96328	8.03
652.97818	1.48
652.99307	1.78
653.00796	12.08
653.02285	3.78
653.03773	6.48
653.05261	1.68
653.06749	0.98
653.08237	-1.27
653.09725	2.08
653.11212	5.98
653.12699	1.93
653.14186	16.03
653.15672	24.68
653.17158	7.18
653.18644	15.63
653.2013	8.58
653.21616	10.73
653.23101	18.28
653.24586	-0.77
653.26071	-5.92
653.27555	12.28
653.29039	14.98
653.30524	5.23
653.32007	7.23
653.33491	93.93
653.34974	221.83
653.36457	24.43
653.3794	-1.82
653.39423	-4.27
653.40905	-2.12
653.42387	1.43
653.43869	4.38
653.45351	-1.57
653.46832	-7.32
653.48313	-3.67
653.49794	1.08
653.51274	9.93
653.52755	12.13
653.54235	4.08
653.55715	-7.62
653.57194	0.78
653.58674	9.33
653.60153	7.43
653.61632	2.08
653.6311	-6.02
653.64589	-4.02
653.66067	9.33
653.67545	5.33
653.69023	-3.37
653.705	-4.22
653.71977	-0.92
653.73454	-0.17
653.74931	-0.82
653.76407	6.08
653.77883	8.83
653.79359	10.38
653.80835	2.68
653.8231	1.33
653.83786	6.58
653.85261	21.23
653.86735	10.78
653.8821	33.13
653.89684	7.58
653.91158	4.83
653.92632	15.58
653.94105	12.93
653.95579	13.48
653.97052	-4.92
653.98524	-3.87
653.99997	6.78
654.01469	6.68
654.02941	7.53
654.04413	13.08
654.05884	8.83
654.07356	14.93
654.08827	49.88
654.10297	100.13
654.11768	24.33
654.13238	21.98
654.14708	14.83
654.16178	1.93
654.17648	7.98
654.19117	-4.57
654.20586	-8.62
654.22055	5.23
654.23524	8.83
654.24992	39.63
654.2646	64.48
654.27928	28.78
654.29395	20.98
654.30863	25.83
654.3233	27.58
654.33797	16.73
654.35263	18.43
654.3673	19.33
654.38196	17.03
654.39662	-0.17
654.41127	5.73
654.42593	12.03
654.44058	12.98
654.45523	3.23
654.46987	0.43
654.48452	14.53
654.49916	12.78
654.5138	10.53
654.52844	14.78
654.54307	16.58
654.5577	21.43
654.57233	13.23
654.58696	13.98
654.60158	13.03
654.6162	8.93
654.63082	5.68
654.64544	12.88
654.66005	9.98
654.67467	5.53
654.68928	17.38
654.70388	18.48
654.71849	19.43
654.73309	50.73
654.74769	98.78
654.76229	16.83
654.77688	18.18
654.79148	10.83
654.80607	6.23
654.82065	19.88
654.83524	16.53
654.84982	11.93
654.8644	6.13
654.87898	3.98
654.89355	8.93
654.90813	13.48
654.9227	6.28
654.93727	4.38
654.95183	8.13
654.96639	15.38
654.98095	16.63
654.99551	12.58
655.01007	21.23
655.02462	8.18
655.03917	9.93
655.05372	8.58
655.06827	13.33
655.08281	25.23
655.09735	26.03
655.11189	26.13
655.12643	23.58
655.14096	21.93
655.15549	25.03
655.17002	15.63
655.18454	17.18
655.19907	22.98
655.21359	29.33
655.22811	38.43
655.24262	34.18
655.25714	36.13
655.27165	44.78
655.28616	39.48
655.30067	46.78
655.31517	59.38
655.32967	68.18
655.34417	89.98
655.35867	139.08
655.37316	322.43
655.38765	1047.93
655.40214	3129.18
655.41663	6653.43
655.43111	9367.23
655.4456	8855.08
655.46008	6427.83
655.47455	4648.58
655.48903	3843.28
655.5035	3153.03
655.51797	2399.98
655.53244	1675.18
655.5469	1187.78
655.56136	1292.88
655.57582	2629.83
655.59028	5625.28
655.60474	8711.18
655.61919	9228.13
655.63364	7174.78
655.64809	5075.68
655.66253	4017.38
655.67697	3323.23
655.69141	2619.88
655.70585	1857.48
655.72029	1187.53
655.73472	696.18
655.74915	387.58
655.76358	226.93
655.778	144.23
655.79243	119.68
655.80685	83.53
655.82127	56.13
655.83568	54.63
655.8501	59.03
655.86451	38.98
655.87891	36.38
655.89332	28.93
655.90772	19.63
655.92212	16.73
655.93652	32.63
655.95092	27.68
655.96531	18.48
655.9797	11.88
655.99409	23.88
656.00848	15.73
656.02286	22.93
656.03724	21.08
656.05162	12.98
656.066	2.18
656.08037	4.28
656.09475	9.73
656.10911	7.33
656.12348	11.93
656.13784	17.63
656.15221	11.88
656.16657	22.88
656.18092	15.53
656.19528	23.23
656.20963	15.88
656.22398	8.38
656.23833	16.78
656.25267	17.53
656.26701	20.78
656.28135	4.98
656.29569	8.18
656.31002	18.63
656.32436	26.53
656.33869	28.83
656.35301	11.93
656.36734	12.13
656.38166	4.08
656.39598	-0.77
656.4103	-2.27
656.42461	3.58
656.43892	5.88
656.45323	2.38
656.46754	6.68
656.48185	4.48
656.49615	3.28
656.51045	7.93
656.52475	10.48
656.53904	7.43
656.55334	2.78
656.56763	3.73
656.58192	7.83
656.5962	6.63
656.61048	2.98
656.62476	6.73
656.63904	7.88
656.65332	7.63
656.66759	1.63
656.68186	2.08
656.69613	5.43
656.7104	4.88
656.72466	13.18
656.73892	11.43
656.75318	16.93
656.76744	6.78
656.78169	9.03
656.79594	21.23
656.81019	34.18
656.82444	-0.07
656.83868	2.98
656.85292	4.63
656.86716	5.03
656.8814	9.83
656.89563	3.28
656.90986	2.38
656.92409	6.63
656.93832	7.08
656.95254	7.63
656.96676	9.73
656.98098	20.58
656.9952	7.08
657.00941	5.53
657.02363	-4.92
657.03784	-3.17
657.05204	1.08
657.06625	22.28
657.08045	6.63
657.09465	4.93
657.10885	-4.37
657.12304	3.58
657.13723	1.73
657.15142	7.48
657.16561	1.73
657.1798	-3.42
657.19398	-14.57
657.20816	0.33
657.22234	-0.47
657.23651	-0.32
657.25068	1.73
657.26485	3.38
657.27902	2.48
657.29319	-4.07
657.30735	4.83
657.32151	3.38
657.33567	11.18
657.34982	23.43
657.36398	16.48
657.37813	14.23
657.39227	-0.22
657.40642	13.93
657.42056	16.83
657.4347	8.68
657.44884	7.28
657.46298	3.73
657.47711	16.13
657.49124	20.38
657.50537	-1.17
657.5195	0.93
657.53362	0.33
657.54774	1.93
657.56186	17.53
657.57598	27.88
657.59009	8.23
657.6042	8.28
657.61831	8.68
657.63242	9.58
657.64652	11.23
657.66062	10.48
657.67472	11.73
657.68882	9.78
657.70291	3.53
657.717	5.93
657.73109	2.73
657.74518	13.23
657.75926	4.88
657.77335	-2.07
657.78742	-0.02
657.8015	-1.57
657.81558	4.83
657.82965	5.58
657.84372	-3.77
657.85778	8.48
657.87185	3.03
657.88591	3.13
657.89997	2.23
657.91403	14.73
657.92808	18.48
657.94214	10.43
657.95618	6.83
657.97023	3.18
657.98428	10.68
657.99832	32.33
658.01236	6.73
658.0264	-7.32
658.04043	3.03
658.05447	6.33
658.0685	-8.37
658.08252	-4.37
658.09655	6.48
658.11057	17.53
658.12459	17.93
658.13861	20.88
658.15263	8.78
658.16664	22.23
658.18065	12.43
658.19466	0.43
658.20866	-5.87
658.22267	-1.02
658.23667	5.58
658.25067	8.03
658.26466	9.93
658.27865	8.18
658.29265	-0.02
658.30663	1.33
658.32062	-0.07
658.3346	5.23
658.34858	8.38
658.36256	8.78
658.37654	3.18
658.39051	11.33
658.40448	14.48
658.41845	6.43
658.43242	5.83
658.44638	-0.42
658.46035	-2.72
658.4743	6.38
658.48826	13.13
658.50221	17.93
658.51617	9.23
658.53012	-2.27
658.54406	-2.67
658.55801	2.78
658.57195	0.48
658.58589	12.63
658.59983	12.93
658.61376	-3.02
658.62769	0.13
658.64162	13.88
658.65555	11.48
658.66947	-0.62
658.6834	31.93
658.69731	92.83
658.71123	18.63
658.72515	16.33
658.73906	7.93
658.75297	9.28
658.76688	6.58
658.78078	12.93
658.79468	4.08
658.80858	-3.57
658.82248	-0.17
658.83638	8.13
658.85027	11.58
658.86416	5.53
658.87805	4.38
658.89193	-0.37
658.90582	4.03
658.9197	3.93
658.93357	6.23
658.94745	3.33
658.96132	-4.52
658.97519	8.78
658.98906	-6.27
659.00293	-7.92
659.01679	-5.37
659.03065	0.83
659.04451	13.13
659.05837	7.23
659.07222	-1.02
659.08607	-0.02
659.09992	10.08
659.11377	6.83
659.12761	-0.77
659.14145	2.28
659.15529	12.13
659.16913	12.08
659.18296	10.73
659.19679	2.43
659.21062	6.43
659.22445	5.93
659.23827	27.48
659.25209	18.93
659.26591	13.23
659.27973	14.38
659.29354	4.78
659.30735	0.88
659.32116	7.88
659.33497	1.73
659.34877	-9.92
659.36258	-2.77
659.37637	16.18
659.39017	11.93
659.40397	-6.22
659.41776	-0.52
659.43155	3.03
659.44533	10.48
659.45912	17.48
659.4729	-0.12
659.48668	7.98
659.50046	6.38
659.51423	-0.07
659.52801	7.53
659.54178	17.98
659.55554	1.78
659.56931	6.13
659.58307	4.08
659.59683	10.08
659.61059	8.48
659.62434	33.58
659.6381	64.83
659.65185	5.93
659.6656	-4.17
659.67934	2.03
659.69308	2.83
659.70682	6.88
659.72056	6.58
659.7343	9.28
659.74803	1.43
659.76176	-0.22
659.77549	1.83
659.78922	18.38
659.80294	-8.77
659.81666	-8.47
659.83038	6.78
659.84409	6.43
659.85781	0.63
659.87152	2.83
659.88523	4.98
659.89893	2.88
659.91264	11.93
659.92634	19.13
659.94004	8.88
659.95373	8.83
659.96743	9.73
659.98112	13.38
659.99481	10.83
660.00849	4.08
660.02218	10.53
660.03586	13.13
660.04954	-3.32
660.06322	0.78
660.07689	18.58
660.09056	23.53
660.10423	-5.82
660.1179	4.08
660.13156	12.73
660.14522	7.08
660.15888	5.63
660.17254	2.23
660.1862	11.48
660.19985	5.08
660.2135	-3.37
660.22714	4.48
660.24079	-0.02
660.25443	1.73
660.26807	6.73
660.28171	8.88
660.29534	10.08
660.30898	5.73
660.32261	-4.12
660.33623	-12.37
660.34986	-9.77
660.36348	8.68
660.3771	4.68
660.39072	18.18
660.40433	14.33
660.41795	9.43
660.43156	0.13
660.44517	7.23
660.45877	9.03
660.47237	3.38
660.48598	3.38
660.49957	-0.27
660.51317	2.83
660.52676	1.63
660.54035	11.83
660.55394	13.63
660.56753	7.28
660.58111	14.83
660.59469	17.48
660.60827	-2.42
660.62185	5.38
660.63542	10.33
660.64899	12.13
660.66256	15.23
660.67613	10.88
660.68969	12.33
660.70325	13.83
660.71681	3.78
660.73037	-4.32
660.74392	7.18
660.75747	3.73
660.77102	6.43
660.78457	1.13
660.79811	14.38
660.81165	16.98
660.82519	10.33
660.83873	4.38
660.85226	10.83
660.86579	13.43
660.87932	8.08
660.89285	2.43
660.90637	16.58
660.9199	9.68
660.93342	6.28
660.94693	14.73
660.96045	1.88
660.97396	7.08
660.98747	19.73
661.00098	2.98
661.01448	-2.67
661.02798	2.63
661.04148	8.53
661.05498	17.18
661.06848	5.03
661.08197	-0.42
661.09546	22.68
661.10895	42.63
661.12243	13.13
661.13591	13.03
661.14939	-3.67
661.16287	0.13
661.17635	13.83
661.18982	12.98
661.20329	23.28
661.21676	21.73
661.23022	9.53
661.24369	8.58
661.25715	6.78
661.27061	1.98
661.28406	14.58
661.29752	-5.37
661.31097	0.58
661.32441	9.03
661.33786	-0.47
661.3513	-2.47
661.36474	3.93
661.37818	8.98
661.39162	6.73
661.40505	45.78
661.41848	109.53
661.43191	12.23
661.44534	4.33
661.45876	9.43
661.47218	12.43
661.4856	11.93
661.49902	14.23
661.51243	4.83
661.52585	16.43
661.53925	8.63
661.55266	4.53
661.56606	2.38
661.57947	9.83
661.59287	-0.27
661.60626	0.23
661.61966	12.18
661.63305	5.58
661.64644	6.33
661.65983	4.53
661.67321	11.43
661.68659	5.58
661.69997	19.73
661.71335	11.18
661.72672	23.23
661.7401	43.98
661.75347	6.88
661.76683	10.68
661.7802	16.38
661.79356	21.63
661.80692	3.68
661.82028	7.63
661.83363	6.03
661.84698	0.48
661.86033	12.93
661.87368	9.98
661.88703	10.13
661.90037	5.88
661.91371	2.63
661.92705	-4.42
661.94038	1.03
661.95372	7.98
661.96705	23.43
661.98038	29.88
661.9937	10.83
662.00702	6.58
662.02034	18.48
662.03366	13.18
662.04698	7.58
662.06029	-2.82
662.0736	-2.12
662.08691	-1.07
662.10022	4.33
662.11352	10.23
662.12682	11.43
662.14012	-10.52
662.15342	-0.57
662.16671	11.13
662.18	2.43
662.19329	3.83
662.20658	-1.22
662.21986	-0.52
662.23314	3.23
662.24642	-1.12
662.2597	9.98
662.27297	3.58
662.28624	-1.87
662.29951	5.53
662.31278	-0.12
662.32604	-1.62
662.3393	2.28
662.35256	5.83
662.36582	1.48
662.37907	-3.57
662.39233	3.38
662.40558	8.48
662.41882	10.88
662.43207	11.93
662.44531	2.63
662.45855	-3.77
662.47179	-1.47
662.48502	4.58
662.49825	4.53
662.51148	12.43
662.52471	12.28
662.53794	2.83
662.55116	12.48
662.56438	5.78
662.5776	0.98
662.59081	11.33
662.60402	13.53
662.61723	7.58
662.63044	15.58
662.64365	7.63
662.65685	5.38
662.67005	14.58
662.68325	22.43
662.69644	2.63
662.70964	3.63
662.72283	9.63
662.73601	14.68
662.7492	12.73
662.76238	6.83
662.77556	7.23
662.78874	15.38
662.80192	18.23
662.81509	22.08
662.82826	11.78
662.84143	-4.37
662.8546	4.63
662.86776	5.43
662.88092	-4.47
662.89408	-4.57
662.90724	7.18
662.92039	27.93
662.93354	8.08
662.94669	2.18
662.95984	5.78
662.97298	0.63
662.98612	-3.82
662.99926	-5.57
663.0124	7.78
663.02553	9.43
663.03866	11.93
663.05179	6.63
663.06492	9.93
663.07804	15.48
663.09116	20.28
663.10428	4.83
663.1174	-2.22
663.13052	7.03
663.14363	7.58
663.15674	-2.52
663.16984	5.23
663.18295	13.48
663.19605	14.28
663.20915	14.58
663.22225	10.93
663.23534	13.03
663.24843	-3.97
663.26152	-5.52
663.27461	-0.87
663.2877	8.18
663.30078	7.28
663.31386	8.33
663.32694	6.68
663.34001	20.13
663.35308	17.73
663.36615	0.93
663.37922	15.73
663.39229	22.53
663.40535	-3.47
663.41841	-3.52
663.43147	-1.87
663.44452	6.63
663.45758	11.03
663.47063	10.63
663.48368	4.58
663.49672	8.08
663.50977	-0.17
663.52281	6.43
663.53584	3.23
663.54888	-2.67
663.56191	-3.22
663.57494	-7.67
663.58797	-8.57
663.601	1.18
663.61402	5.33
663.62704	11.88
663.64006	6.13
663.65308	0.43
663.66609	-7.27
663.6791	-4.92
663.69211	22.03
663.70512	24.58
663.71812	1.28
663.73112	-0.67
663.74412	2.23
663.75712	13.63
663.77011	8.33
663.78311	5.33
663.79609	13.38
663.80908	5.68
663.82207	0.53
663.83505	-10.52
663.84803	-2.77
663.861	4.88
663.87398	6.38
663.88695	6.13
663.89992	2.43
663.91289	3.58
663.92585	6.43
663.93881	-2.72
663.95177	10.43
663.96473	27.38
663.97769	10.33
663.99064	-5.82
664.00359	0.58
664.01654	17.13
664.02948	15.73
664.04242	9.88
664.05536	7.63
664.0683	9.68
664.08124	12.83
664.09417	13.33
664.1071	9.93
664.12003	11.88
664.13295	2.93
664.14588	2.73
664.1588	1.53
664.17171	-0.57
664.18463	11.18
664.19754	5.33
664.21045	9.73
664.22336	4.33
664.23627	12.88
664.24917	9.73
664.26207	3.53
664.27497	-0.07
664.28787	12.88
664.30076	15.23
664.31365	5.13
664.32654	7.13
664.33942	-2.07
664.35231	3.68
664.36519	1.73
664.37807	3.28
664.39094	10.93
664.40382	15.63
664.41669	13.58
664.42956	7.48
664.44242	6.68
664.45529	7.53
664.46815	4.88
664.48101	6.03
664.49387	12.88
664.50672	-8.37
664.51957	-3.12
664.53242	6.18
664.54527	8.43
664.55811	8.68
664.57095	4.78
664.58379	4.28
664.59663	-3.77
664.60946	6.68
664.6223	14.33
664.63513	12.18
664.64795	13.58
664.66078	8.83
664.6736	8.03
664.68642	3.53
664.69924	0.78
664.71205	3.58
664.72486	-1.27
664.73767	1.18
664.75048	13.68
664.76329	12.73
664.77609	6.68
664.78889	18.53
664.80169	10.18
664.81448	-0.42
664.82728	3.53
664.84007	6.78
664.85285	-3.57
664.86564	8.53
664.87842	-2.77
664.8912	-0.27
664.90398	15.13
664.91676	15.38
664.92953	3.03
664.9423	14.33
664.95507	13.33
664.96783	10.68
664.9806	14.38
664.99336	5.43
665.00612	10.08
665.01887	12.28
665.03163	6.93
665.04438	10.63
665.05713	17.33
665.06987	1.03
665.08262	-7.62
665.09536	-0.57
665.1081	5.28
665.12083	2.78
665.13357	-3.77
665.1463	13.43
665.15903	15.98
665.17175	17.18
665.18448	5.33
665.1972	6.68
665.20992	4.93
665.22263	8.28
665.23535	26.18
665.24806	52.43
665.26077	8.03
665.27348	-0.77
665.28618	17.73
665.29888	10.78
665.31158	-1.57
665.32428	14.08
665.33697	6.63
665.34967	3.48
665.36236	4.48
665.37504	5.23
665.38773	4.58
665.40041	13.28
665.41309	11.73
665.42577	12.53
665.43844	2.58
665.45111	8.48
665.46378	5.68
665.47645	3.08
665.48912	13.28
665.50178	11.63
665.51444	2.23
665.5271	12.98
665.53975	3.48
665.55241	-3.82
665.56506	0.43
665.5777	2.73
665.59035	7.43
665.60299	12.58
665.61563	13.28
665.62827	13.63
665.64091	7.23
665.65354	0.93
665.66617	3.83
665.6788	7.43
665.69142	12.53
665.70405	10.88
665.71667	1.23
665.72929	0.88
665.7419	3.38
665.75452	-5.82
665.76713	-0.42
665.77974	2.28
665.79234	17.03
665.80495	12.38
665.81755	8.48
665.83015	-2.17
665.84274	9.93
665.85534	0.38
665.86793	0.33
665.88052	6.23
665.8931	11.83
665.90569	3.18
665.91827	1.38
665.93085	-7.47
665.94343	12.78
665.956	8.58
665.96857	-5.97
665.98114	-3.02
665.99371	-12.12
666.00627	-11.77
666.01883	-2.97
666.03139	13.08
666.04395	10.28
666.05651	14.08
666.06906	22.08
666.08161	11.23
666.09415	3.98
666.1067	7.38
666.11924	5.48
666.13178	2.43
666.14432	3.58
666.15685	-0.47
666.16939	-1.47
666.18192	2.13
666.19444	5.63
666.20697	13.03
666.21949	18.88
666.23201	15.53
666.24453	5.93
666.25705	14.23
666.26956	5.63
666.28207	8.53
666.29458	3.78
666.30708	0.23
666.31959	7.28
666.33209	11.03
666.34458	6.83
666.35708	9.18
666.36957	13.83
666.38206	12.63
666.39455	10.53
666.40704	4.33
666.41952	6.53
666.432	10.73
666.44448	8.88
666.45696	-0.22
666.46943	2.93
666.4819	4.83
666.49437	9.23
666.50684	11.63
666.5193	-1.37
666.53176	-9.47
666.54422	-3.27
666.55668	13.03
666.56913	-0.47
666.58158	7.13
666.59403	15.83
666.60648	9.68
666.61892	4.73
666.63136	11.78
666.6438	8.43
666.65624	7.68
666.66867	13.03
666.68111	10.28
666.69354	13.38
666.70596	14.83
666.71839	5.23
666.73081	4.03
666.74323	-1.62
666.75565	12.48
666.76806	11.98
666.78047	-3.47
666.79288	3.53
666.80529	11.28
666.81769	2.48
666.8301	5.43
666.8425	7.73
666.85489	-1.82
666.86729	4.48
666.87968	-3.27
666.89207	-1.12
666.90446	7.68
666.91684	9.93
666.92923	-0.67
666.94161	18.28
666.95399	40.13
666.96636	9.28
666.97873	5.98
666.9911	-8.72
667.00347	4.23
667.01584	11.78
667.0282	13.23
667.04056	-1.17
667.05292	-0.02
667.06528	4.68
667.07763	-0.92
667.08998	6.93
667.10233	10.68
667.11467	-3.32
667.12702	-7.52
667.13936	0.63
667.1517	17.08
667.16403	8.23
667.17637	6.78
667.1887	-2.57
667.20103	-6.12
667.21335	-2.82
667.22568	2.33
667.238	4.13
667.25032	6.28
667.26263	16.28
667.27495	4.93
667.28726	9.93
667.29957	19.08
667.31188	13.98
667.32418	7.23
667.33648	3.38
667.34878	12.48
667.36108	5.23
667.37337	-11.52
667.38566	-0.92
667.39795	7.68
667.41024	7.48
667.42252	21.18
667.43481	14.23
667.44709	4.88
667.45936	7.38
667.47164	12.13
667.48391	9.78
667.49618	-2.12
667.50845	-2.62
667.52071	8.38
667.53297	7.48
667.54523	5.48
667.55749	5.28
667.56975	5.03
667.582	3.18
667.59425	7.13
667.6065	20.93
667.61874	6.93
667.63099	16.43
667.64323	15.78
667.65546	0.18
667.6677	5.83
667.67993	5.43
667.69216	8.63
667.70439	0.18
667.71662	-0.27
667.72884	6.28
667.74106	5.33
667.75328	5.73
667.76549	4.38
667.77771	5.63
667.78992	9.43
667.80213	11.38
667.81433	-0.97
667.82654	5.88
667.83874	8.93
667.85094	-5.57
667.86313	-7.92
667.87533	-8.42
667.88752	-2.87
667.89971	-0.27
667.91189	1.83
667.92408	-3.72
667.93626	2.08
667.94844	6.43
667.96061	12.08
667.97279	3.28
667.98496	7.53
667.99713	2.83
668.0093	3.38
668.02146	15.63
668.03362	9.58
668.04578	2.68
668.05794	-7.37
668.07009	-1.67
668.08224	6.63
668.09439	23.53
668.10654	11.48
668.11868	9.43
668.13083	7.33
668.14297	4.58
668.1551	6.78
668.16724	8.88
668.17937	8.48
668.1915	-0.07
668.20363	3.83
668.21575	4.93
668.22788	4.13
668.24	10.18
668.25211	17.63
668.26423	18.38
668.27634	-0.07
668.28845	5.83
668.30056	0.48
668.31266	-0.17
668.32477	3.48
668.33687	-3.47
668.34897	-5.22
668.36106	3.43
668.37315	9.63
668.38524	3.88
668.39733	3.58
668.40942	-4.12
668.4215	5.83
668.43358	2.23
668.44566	3.08
668.45774	4.53
668.46981	-1.42
668.48188	2.98
668.49395	9.78
668.50602	14.53
668.51808	8.28
668.53014	4.58
668.5422	4.88
668.55425	4.88
668.56631	9.73
668.57836	4.28
668.59041	12.73
668.60246	1.03
668.6145	-5.92
668.62654	-5.12
668.63858	5.28
668.65062	4.73
668.66265	10.38
668.67468	0.28
668.68671	2.83
668.69874	20.23
668.71076	10.33
668.72278	3.83
668.7348	4.58
668.74682	0.23
668.75883	1.08
668.77085	-9.67
668.78286	-12.47
668.79486	2.23
668.80687	5.03
668.81887	2.13
668.83087	10.18
668.84287	-0.42
668.85486	9.23
668.86685	-9.07
668.87884	-4.57
668.89083	8.63
668.90282	13.38
668.9148	3.23
668.92678	3.78
668.93876	3.68
668.95073	2.23
668.9627	1.78
668.97468	3.58
668.98664	7.23
668.99861	11.58
669.01057	11.33
669.02253	4.83
669.03449	10.38
669.04645	3.23
669.0584	5.18
669.07035	3.98
669.0823	0.28
669.09424	-8.67
669.10619	-5.67
669.11813	3.23
669.13007	11.83
669.142	12.68
669.15393	15.18
669.16587	7.78
669.17779	0.93
669.18972	-6.77
669.20164	-6.67
669.21356	1.93
669.22548	5.08
669.2374	3.48
669.24931	2.68
669.26123	-5.67
669.27313	3.28
669.28504	9.73
669.29694	2.88
669.30885	3.03
669.32074	5.28
669.33264	12.63
669.34454	0.88
669.35643	-6.77
669.36832	-4.72
669.3802	3.58
669.39209	-6.22
669.40397	-1.12
669.41585	-3.62
669.42773	-7.07
669.4396	-12.37
669.45147	-12.97
669.46334	-1.67
669.47521	7.08
669.48707	-2.37
669.49894	-2.52
669.5108	7.48
669.52265	4.53
669.53451	7.88
669.54636	0.53
669.55821	6.23
669.57006	-1.42
669.5819	-6.17
669.59375	-4.12
669.60559	1.78
669.61742	2.58
669.62926	-4.17
669.64109	-1.62
669.65292	8.28
669.66475	5.23
669.67658	0.83
669.6884	0.43
669.70022	1.38
669.71204	14.13
669.72385	5.23
669.73567	0.93
669.74748	0.88
669.75928	-0.17
669.77109	4.33
669.78289	4.58
669.79469	2.78
669.80649	2.93
669.81829	-5.97
669.83008	7.23
669.84187	5.43
669.85366	-2.97
669.86545	2.08
669.87723	12.63
669.88901	12.33
669.90079	12.83
669.91257	4.98
669.92434	14.23
669.93611	22.33
669.94788	16.23
669.95965	8.48
669.97141	-1.57
669.98317	0.78
669.99493	5.78
670.00669	4.93
670.01844	7.38
670.0302	9.43
670.04194	1.33
670.05369	15.03
670.06544	-3.82
670.07718	1.58
670.08892	7.08
670.10065	5.78
670.11239	2.53
670.12412	8.73
670.13585	9.38
670.14758	-1.97
670.1593	-1.07
670.17103	9.33
670.18275	21.93
670.19446	3.63
670.20618	9.08
670.21789	3.78
670.2296	8.58
670.24131	3.28
670.25301	12.98
670.26472	20.03
670.27642	10.63
670.28811	3.18
670.29981	1.13
670.3115	1.33
670.32319	-0.37
670.33488	-3.07
670.34656	-2.32
670.35825	12.08
670.36993	13.63
670.38161	6.53
670.39328	-1.17
670.40496	3.58
670.41663	2.63
670.42829	8.58
670.43996	6.63
670.45162	4.08
670.46328	-3.32
670.47494	-9.37
670.4866	1.43
670.49825	8.13
670.5099	5.28
670.52155	5.88
670.5332	11.98
670.54484	-0.47
670.55648	-5.02
670.56812	8.53
670.57976	0.28
670.59139	-4.42
670.60302	-2.77
670.61465	7.58
670.62628	2.78
670.6379	-1.92
670.64952	5.53
670.66114	-1.97
670.67276	-11.17
670.68438	-0.32
670.69599	8.83
670.7076	3.13
670.7192	8.08
670.73081	21.43
670.74241	18.73
670.75401	6.83
670.76561	7.63
670.7772	6.58
670.78879	-0.17
670.80038	-0.87
670.81197	-5.02
670.82355	-0.37
670.83514	4.13
670.84672	-2.92
670.85829	-1.67
670.86987	-3.67
670.88144	2.63
670.89301	-5.37
670.90458	-7.87
670.91614	-4.72
670.92771	2.53
670.93927	7.28
670.95083	8.78
670.96238	3.93
670.97393	-3.07
670.98548	-2.17
670.99703	-5.67
671.00858	-4.12
671.02012	-1.57
671.03166	-9.47
671.0432	-7.82
671.05473	5.08
671.06627	5.28
671.0778	-0.52
671.08933	1.88
671.10085	5.43
671.11238	8.03
671.1239	7.93
671.13542	10.08
671.14693	0.78
671.15845	-3.17
671.16996	11.28
671.18147	14.93
671.19297	11.28
671.20448	15.28
671.21598	0.18
671.22748	-1.22
671.23897	-3.42
671.25047	-1.57
671.26196	4.18
671.27345	-3.77
671.28493	-1.72
671.29642	-3.67
671.3079	-2.32
671.31938	-1.57
671.33085	-3.07
671.34233	6.73
671.3538	11.08
671.36527	4.53
671.37674	-7.42
671.3882	-7.72
671.39966	-9.27
671.41112	-1.72
671.42258	-6.67
671.43404	5.23
671.44549	10.33
671.45694	-0.27
671.46838	5.38
671.47983	5.18
671.49127	1.03
671.50271	15.48
671.51415	9.33
671.52558	6.58
671.53702	10.13
671.54845	13.68
671.55987	5.88
671.5713	2.08
671.58272	1.93
671.59414	8.23
671.60556	27.08
671.61698	15.18
671.62839	4.03
671.6398	7.03
671.65121	1.03
671.66261	-2.07
671.67402	-8.62
671.68542	-2.22
671.69681	-11.17
671.70821	-10.42
671.7196	3.78
671.73099	-2.32
671.74238	1.03
671.75377	4.18
671.76515	1.53
671.77653	0.23
671.78791	2.58
671.79929	14.93
671.81066	10.68
671.82203	11.33
671.8334	-3.12
671.84477	6.03
671.85613	5.88
671.86749	7.98
671.87885	14.78
671.89021	26.98
671.90156	5.28
671.91291	-6.07
671.92426	-8.37
671.93561	-0.67
671.94695	0.48
671.9583	0.73
671.96963	17.63
671.98097	10.93
671.99231	6.63
672.00364	-10.57
672.01497	4.23
672.02629	6.43
672.03762	0.83
672.04894	1.88
672.06026	-5.47
672.07158	-6.72
672.08289	-2.97
672.0942	-0.72
672.10551	13.53
672.11682	29.68
672.12813	11.48
672.13943	5.73
672.15073	-2.07
672.16203	-0.87
672.17332	0.23
672.18461	1.63
672.1959	12.53
672.20719	11.33
672.21848	15.68
672.22976	15.23
672.24104	10.58
672.25232	4.23
672.26359	2.28
672.27487	-2.37
672.28614	11.58
672.29741	10.73
672.30867	0.93
672.31993	1.68
672.33119	2.73
672.34245	0.93
672.35371	-9.07
672.36496	-2.32
672.37621	1.13
672.38746	-6.27
672.39871	-4.92
672.40995	-0.07
672.42119	11.18
672.43243	19.83
672.44367	18.03
672.4549	4.38
672.46613	9.98
672.47736	6.48
672.48859	13.68
672.49981	5.78
672.51103	-1.67
672.52225	2.88
672.53347	4.93
672.54468	3.63
672.55589	12.33
672.5671	1.78
672.57831	0.68
672.58951	12.68
672.60072	7.73
672.61191	0.78
672.62311	2.48
672.63431	5.58
672.6455	8.23
672.65669	5.03
672.66787	-3.57
672.67906	-4.47
672.69024	-1.52
672.70142	-3.47
672.7126	4.73
672.72377	-4.62
672.73494	-3.82
672.74611	4.73
672.75728	1.98
672.76845	4.68
672.77961	5.88
672.79077	-0.12
672.80193	-4.12
672.81308	6.68
672.82423	9.48
672.83539	9.38
672.84653	3.93
672.85768	1.03
672.86882	1.73
672.87996	7.23
672.8911	1.93
672.90223	4.48
672.91337	1.28
672.9245	-2.27
672.93563	2.53
672.94675	7.38
672.95788	14.23
672.969	-0.67
672.98011	4.38
672.99123	13.43
673.00234	5.33
673.01345	-2.37
673.02456	-5.77
673.03567	-2.57
673.04677	7.08
673.05787	0.38
673.06897	3.48
673.08007	0.78
673.09116	0.28
673.10225	-8.47
673.11334	3.18
673.12443	16.58
673.13551	14.78
673.14659	9.18
673.15767	4.68
673.16875	4.93
673.17982	0.78
673.1909	-4.82
673.20196	-0.27
673.21303	-3.22
673.2241	3.68
673.23516	9.13
673.24622	3.88
673.25727	5.23
673.26833	5.58
673.27938	8.93
673.29043	8.08
673.30148	15.73
673.31252	6.13
673.32356	4.33
673.3346	2.58
673.34564	5.73
673.35668	3.53
673.36771	-1.17
673.37874	5.33
673.38977	7.48
673.40079	11.58
673.41181	7.98
673.42283	10.13
673.43385	0.88
673.44487	4.33
673.45588	0.78
673.46689	-8.02
673.4779	5.63
673.4889	15.53
673.4999	3.93
673.51091	4.38
673.5219	6.58
673.5329	16.78
673.54389	10.28
673.55488	-2.67
673.56587	9.98
673.57686	10.08
673.58784	2.38
673.59882	10.78
673.6098	0.78
673.62077	14.48
673.63175	33.53
673.64272	13.18
673.65369	-1.12
673.66465	3.78
673.67562	0.83
673.68658	7.73
673.69754	-1.82
673.70849	7.13
673.71945	11.28
673.7304	14.63
673.74135	28.58
673.75229	21.33
673.76324	25.68
673.77418	5.98
673.78512	7.28
673.79605	5.58
673.80699	9.73
673.81792	3.73
673.82885	10.28
673.83978	14.78
673.8507	11.63
673.86162	4.88
673.87254	2.03
673.88346	11.43
673.89437	5.78
673.90529	11.93
673.9162	15.68
673.9271	7.78
673.93801	10.33
673.94891	-0.27
673.95981	2.73
673.97071	4.83
673.9816	7.28
673.99249	4.88
674.00338	8.03
674.01427	3.28
674.02516	-0.97
674.03604	-8.82
674.04692	-2.37
674.0578	4.58
674.06867	4.23
674.07954	8.83
674.09042	22.48
674.10128	-0.17
674.11215	-9.77
674.12301	4.73
674.13387	5.03
674.14473	-3.67
674.15559	-0.32
674.16644	-1.17
674.17729	-3.47
674.18814	0.68
674.19898	5.88
674.20983	-3.62
674.22067	-2.82
674.23151	0.38
674.24234	-5.62
674.25318	1.98
674.26401	17.73
674.27483	13.03
674.28566	-2.77
674.29648	-2.57
674.30731	-2.27
674.31812	-0.67
674.32894	1.33
674.33975	11.13
674.35057	6.18
674.36137	3.78
674.37218	9.98
674.38299	-4.77
674.39379	-6.82
674.40459	11.23
674.41538	7.88
674.42618	0.33
674.43697	-1.12
674.44776	0.03
674.45854	4.13
674.46933	10.73
674.48011	8.08
674.49089	-3.12
674.50167	-1.22
674.51244	-2.12
674.52321	-9.92
674.53398	-14.92
674.54475	-4.57
674.55552	4.83
674.56628	3.13
674.57704	-0.62
674.5878	4.93
674.59855	2.23
674.6093	4.28
674.62005	9.08
674.6308	7.18
674.64155	0.33
674.65229	-0.97
674.66303	0.83
674.67377	13.68
674.6845	13.43
674.69523	16.98
674.70596	10.78
674.71669	0.48
674.72742	-3.12
674.73814	-4.92
674.74886	2.08
674.75958	-1.22
674.77029	3.23
674.78101	-2.77
674.79172	9.23
674.80243	7.28
674.81313	7.18
674.82384	15.78
674.83454	1.43
674.84524	-6.57
674.85593	-0.12
674.86663	6.63
674.87732	-4.82
674.888	-0.17
674.89869	3.38
674.90937	8.68
674.92006	10.33
674.93073	7.38
674.94141	1.03
674.95208	3.78
674.96276	17.33
674.97343	12.73
674.98409	12.93
674.99476	14.93
675.00542	-0.27
675.01608	3.48
675.02673	-0.17
675.03739	1.88
675.04804	7.38
675.05869	13.08
675.06934	13.43
675.07998	13.83
675.09062	-8.37
675.10126	-6.67
675.1119	0.68
675.12253	14.83
675.13317	13.53
675.1438	9.18
675.15442	0.93
675.16505	-2.72
675.17567	6.83
675.18629	16.03
675.19691	9.88
675.20752	6.08
675.21813	4.48
675.22874	1.78
675.23935	9.83
675.24996	7.33
675.26056	12.48
675.27116	11.08
675.28176	5.38
675.29235	6.73
675.30295	2.43
675.31354	4.98
675.32412	4.13
675.33471	-8.52
675.34529	-5.07
675.35587	-1.62
675.36645	-9.82
675.37703	-8.52
675.3876	1.58
675.39817	3.28
675.40874	2.93
675.41931	5.53
675.42987	14.58
675.44043	8.88
675.45099	2.18
675.46154	9.53
675.4721	9.48
675.48265	16.38
675.4932	17.68
675.50374	10.08
675.51429	-0.07
675.52483	2.13
675.53537	-1.67
675.5459	4.23
675.55644	12.38
675.56697	5.53
675.5775	-1.17
675.58803	-0.77
675.59855	5.08
675.60907	2.08
675.61959	-1.82
675.63011	0.93
675.64062	-2.77
675.65113	0.13
675.66164	11.53
675.67215	-0.62
675.68265	7.28
675.69316	6.73
675.70366	1.93
675.71415	15.93
675.72465	25.33
675.73514	13.68
675.74563	17.33
675.75612	4.38
675.7666	-1.57
675.77708	1.68
675.78756	6.28
675.79804	2.13
675.80852	16.68
675.81899	23.53
675.82946	5.83
675.83993	10.08
675.85039	12.08
675.86085	12.68
675.87131	16.38
675.88177	12.03
675.89223	10.78
675.90268	15.48
675.91313	11.73
675.92358	10.53
675.93402	1.43
675.94447	6.53
675.95491	12.28
675.96535	0.98
675.97578	8.63
675.98622	16.38
675.99665	-3.37
676.00707	8.58
676.0175	13.18
676.02792	7.08
676.03835	3.33
676.04876	7.03
676.05918	2.13
676.06959	5.88
676.08	18.28
676.09041	13.03
676.10082	0.58
676.11122	5.03
676.12162	54.38
676.13202	103.23
676.14242	22.08
676.15281	3.98
676.16321	-5.62
676.17359	-0.02
676.18398	-5.42
676.19437	6.83
676.20475	0.18
676.21513	-2.32
676.2255	3.83
676.23588	15.23
676.24625	8.63
676.25662	-1.52
676.26699	-5.17
676.27735	1.48
676.28771	15.83
676.29807	7.48
676.30843	6.83
676.31878	2.18
676.32914	8.33
676.33949	11.88
676.34983	14.68
676.36018	3.53
676.37052	-0.92
676.38086	-5.37
676.3912	-0.72
676.40153	5.23
676.41187	15.38
676.4222	5.33
676.43252	10.28
676.44285	21.63
676.45317	7.13
676.46349	-2.57
676.47381	4.18
676.48413	9.28
676.49444	5.88
676.50475	11.53
676.51506	10.43
676.52536	19.23
676.53567	9.28
676.54597	9.73
676.55626	10.53
676.56656	4.33
676.57685	4.13
676.58714	11.83
676.59743	10.13
676.60772	4.33
676.618	0.33
676.62828	5.13
676.63856	-7.37
676.64884	-5.67
676.65911	-4.12
676.66938	-4.77
676.67965	2.93
676.68992	16.63
676.70018	14.13
676.71044	8.08
676.7207	27.83
676.73096	20.78
676.74121	11.83
676.75146	14.43
676.76171	17.58
676.77196	3.58
676.7822	0.38
676.79245	2.48
676.80269	11.18
676.81292	-2.67
676.82316	-4.62
676.83339	8.13
676.84362	21.78
676.85385	0.88
676.86407	8.48
676.87429	5.88
676.88451	10.03
676.89473	9.78
676.90494	-14.47
676.91516	-9.77
676.92537	-3.87
676.93557	4.48
676.94578	3.08
676.95598	-1.47
676.96618	-6.82
676.97638	-0.57
676.98657	2.18
676.99677	-2.92
677.00696	4.03
677.01714	20.28
677.02733	12.53
677.03751	6.83
677.04769	4.48
677.05787	1.98
677.06805	5.53
677.07822	3.28
677.08839	4.38
677.09856	-6.22
677.10872	-3.52
677.11889	3.58
677.12905	11.58
677.13921	8.83
677.14936	-0.62
677.15951	-1.02
677.16967	7.33
677.17981	15.28
677.18996	13.38
677.2001	0.23
677.21025	-4.87
677.22038	4.23
677.23052	2.73
677.24065	1.83
677.25078	4.93
677.26091	8.63
677.27104	6.78
677.28116	-1.57
677.29129	1.73
677.3014	2.83
677.31152	20.18
677.32164	57.83
677.33175	3.43
677.34186	0.63
677.35196	5.28
677.36207	10.73
677.37217	11.43
677.38227	12.18
677.39236	8.48
677.40246	2.58
677.41255	-5.02
677.42264	3.28
677.43273	6.03
677.44281	7.68
677.45289	11.23
677.46297	-6.72
677.47305	-8.32
677.48313	-3.42
677.4932	3.48
677.50327	0.68
677.51334	2.23
677.5234	5.23
677.53346	11.83
677.54352	7.13
677.55358	5.83
677.56364	12.68
677.57369	23.33
677.58374	11.18
677.59379	-4.02
677.60383	-3.72
677.61388	0.83
677.62392	4.13
677.63395	5.28
677.64399	12.68
677.65402	15.88
677.66405	10.98
677.67408	-0.27
677.68411	1.43
677.69413	8.28
677.70415	10.73
677.71417	7.63
677.72419	-1.67
677.7342	1.93
677.74421	-2.57
677.75422	-2.77
677.76422	0.28
677.77423	6.93
677.78423	16.18
677.79423	4.73
677.80422	9.58
677.81422	4.58
677.82421	-0.67
677.8342	4.23
677.84418	4.53
677.85417	6.68
677.86415	15.58
677.87413	3.58
677.88411	-5.32
677.89408	8.48
677.90405	7.13
677.91402	8.38
677.92399	10.68
677.93395	23.13
677.94391	13.28
677.95387	0.88
677.96383	0.68
677.97378	5.63
677.98374	0.73
677.99369	6.28
678.00363	16.03
678.01358	1.63
678.02352	1.28
678.03346	9.53
678.0434	1.93
678.05333	2.03
678.06326	6.23
678.07319	8.73
678.08312	3.43
678.09305	14.23
678.10297	3.78
678.11289	-4.22
678.12281	5.88
678.13272	3.33
678.14264	-2.07
678.15255	2.83
678.16245	6.18
678.17236	1.73
678.18226	0.13
678.19216	0.93
678.20206	-6.82
678.21196	-2.42
678.22185	9.78
678.23174	11.23
678.24163	10.03
678.25151	8.23
678.2614	21.58
678.27128	21.08
678.28116	6.48
678.29103	12.23
678.30091	7.48
678.31078	-1.12
678.32065	0.78
678.33051	6.43
678.34037	1.23
678.35024	-7.07
678.36009	-4.12
678.36995	-0.27
678.37981	4.88
678.38966	-6.02
678.39951	-0.07
678.40935	0.98
678.4192	1.48
678.42904	-6.37
678.43888	3.13
678.44871	1.03
678.45855	9.03
678.46838	14.33
678.47821	1.33
678.48804	4.03
678.49786	19.58
678.50768	21.63
678.5175	8.78
678.52732	11.63
678.53713	11.03
678.54694	5.98
678.55675	-3.42
678.56656	-4.92
678.57637	-2.37
678.58617	2.98
678.59597	13.48
678.60577	6.03
678.61556	-2.62
678.62535	5.38
678.63514	19.03
678.64493	12.73
678.65472	6.83
678.6645	17.63
678.67428	6.78
678.68406	3.43
678.69383	0.88
678.7036	0.48
678.71337	4.73
678.72314	8.03
678.73291	6.83
678.74267	-1.77
678.75243	0.28
678.76219	1.68
678.77195	7.33
678.7817	1.03
678.79145	0.78
678.8012	4.48
678.81094	1.68
678.82069	-1.67
678.83043	33.43
678.84017	62.98
678.8499	0.78
678.85964	3.78
678.86937	4.88
678.87909	9.83
678.88882	7.98
678.89854	1.73
678.90827	5.53
678.91798	1.63
678.9277	-0.77
678.93742	-4.82
678.94713	0.98
678.95684	1.73
678.96654	7.08
678.97625	7.73
678.98595	9.93
678.99565	-1.37
679.00534	-6.02
679.01504	-2.57
679.02473	-2.97
679.03442	-1.32
679.04411	11.73
679.05379	6.83
679.06347	-4.02
679.07315	0.78
679.08283	5.93
679.0925	2.28
679.10218	7.13
679.11185	-0.22
679.12151	1.28
679.13118	10.98
679.14084	-3.22
679.1505	-1.22
679.16016	-1.07
679.16981	-5.57
679.17946	9.48
679.18911	11.08
679.19876	-5.92
679.20841	7.28
679.21805	14.78
679.22769	7.68
679.23733	10.33
679.24696	17.23
679.2566	6.08
679.26623	4.63
679.27585	5.03
679.28548	-2.02
679.2951	2.88
679.30472	-1.67
679.31434	-1.92
679.32396	-0.82
679.33357	-5.87
679.34318	19.23
679.35279	27.13
679.3624	4.83
679.372	7.13
679.3816	12.73
679.3912	-1.07
679.40079	23.33
679.41039	12.68
679.41998	3.08
679.42957	2.13
679.43915	-0.87
679.44874	2.63
679.45832	14.63
679.4679	4.28
679.47747	-4.82
679.48705	-3.12
679.49662	8.58
679.50619	6.18
679.51575	0.38
679.52532	2.63
679.53488	9.78
679.54444	6.48
679.554	1.03
679.56355	3.98
679.5731	5.78
679.58265	2.33
679.5922	1.48
679.60174	12.43
679.61129	16.38
679.62083	1.48
679.63036	-8.67
679.6399	0.48
679.64943	11.03
679.65896	7.08
679.66849	-1.22
679.67801	2.68
679.68753	7.83
679.69705	16.73
679.70657	26.93
679.71609	19.38
679.7256	17.53
679.73511	10.18
679.74462	-2.67
679.75412	-2.12
679.76362	12.43
679.77312	12.23
679.78262	1.98
679.79212	3.28
679.80161	6.68
679.8111	-3.57
679.82059	-1.22
679.83007	10.43
679.83956	10.18
679.84904	4.43
679.85852	9.83
679.86799	-1.42
679.87747	4.38
679.88694	0.13
679.8964	2.78
679.90587	-2.57
679.91533	5.23
679.92479	4.23
679.93425	-0.22
679.94371	11.38
679.95316	11.78
679.96261	9.33
679.97206	5.48
679.98151	2.43
679.99095	-0.07
680.00039	-0.07
680.00983	-1.62
680.01927	2.78
680.0287	0.63
680.03814	16.68
680.04756	0.83
680.05699	-2.02
680.06641	5.33
680.07584	0.98
680.08526	-2.02
680.09467	1.18
680.10409	-2.47
680.1135	-3.87
680.12291	1.53
680.13232	9.78
680.14172	16.58
680.15112	5.13
680.16052	-0.42
680.16992	6.28
680.17931	6.33
680.18871	7.03
680.1981	-5.12
680.20748	-5.47
680.21687	-0.77
