Data from HR4C25001_14-15-18-821.txt Node
Date: Mon Jun 15 14:15:18 CDT 2026
User: jam28248
Spectrometer: HR4C2500
Trigger mode: 4
Integration Time (sec): 7.500000E-2
Scans to average: 20
Electric dark correction enabled: true
Nonlinearity correction enabled: false
Boxcar width: 0
XAxis mode: Wavelengths
Number of Pixels in Spectrum: 3648
>>>>>Begin Spectral Data<<<<<
629.66646	-25.67
629.6848	-25.67
629.70313	-25.67
629.72147	-48.37
629.7398	-32.97
629.75812	0.53
629.77645	0.93
629.79477	6.58
629.81309	0.08
629.83141	-6.42
629.84972	7.28
629.86803	5.23
629.88634	9.18
629.90465	-12.12
629.92295	-9.07
629.94126	-6.92
629.95956	1.58
629.97785	3.08
629.99615	-0.67
630.01444	16.13
630.03273	11.78
630.05102	13.78
630.0693	3.73
630.08759	14.03
630.10587	1.73
630.12415	1.63
630.14242	7.23
630.16069	-8.67
630.17896	-4.87
630.19723	5.13
630.2155	21.93
630.23376	66.63
630.25202	20.83
630.27028	16.48
630.28854	11.53
630.30679	4.78
630.32504	-1.02
630.34329	7.33
630.36153	11.58
630.37978	22.63
630.39802	10.78
630.41626	2.28
630.43449	-3.32
630.45273	0.23
630.47096	5.38
630.48919	6.28
630.50741	10.48
630.52564	3.38
630.54386	11.88
630.56208	21.78
630.58029	6.93
630.59851	6.78
630.61672	5.08
630.63493	13.48
630.65313	10.08
630.67134	8.73
630.68954	4.58
630.70774	11.28
630.72594	12.98
630.74413	2.08
630.76232	-0.87
630.78051	-2.42
630.7987	2.78
630.81688	11.08
630.83507	16.88
630.85325	12.33
630.87142	7.08
630.8896	8.38
630.90777	1.88
630.92594	-8.37
630.94411	16.83
630.96227	27.23
630.98043	37.83
630.99859	15.83
631.01675	9.28
631.03491	3.08
631.05306	-1.52
631.07121	9.38
631.08936	10.68
631.1075	2.43
631.12564	7.48
631.14379	3.93
631.16192	12.13
631.18006	8.73
631.19819	9.33
631.21632	6.23
631.23445	-3.67
631.25258	1.63
631.2707	5.18
631.28882	7.68
631.30694	10.03
631.32505	3.33
631.34317	9.08
631.36128	5.08
631.37939	11.38
631.39749	3.38
631.4156	3.13
631.4337	-1.22
631.4518	6.73
631.46989	-4.77
631.48799	-0.47
631.50608	3.73
631.52417	-1.62
631.54225	2.93
631.56034	4.18
631.57842	6.48
631.5965	0.18
631.61457	-13.07
631.63265	-4.82
631.65072	5.38
631.66879	-1.72
631.68685	12.63
631.70492	23.78
631.72298	16.98
631.74104	2.58
631.7591	2.43
631.77715	2.88
631.7952	12.53
631.81325	17.23
631.8313	3.18
631.84934	12.93
631.86739	15.08
631.88543	4.43
631.90346	8.88
631.9215	3.88
631.93953	10.78
631.95756	3.08
631.97559	6.38
631.99361	0.33
632.01163	-3.47
632.02965	7.63
632.04767	18.33
632.06569	13.83
632.0837	6.63
632.10171	0.03
632.11972	-4.82
632.13772	1.28
632.15573	16.28
632.17373	1.63
632.19172	-4.27
632.20972	0.33
632.22771	-2.17
632.2457	1.23
632.26369	6.03
632.28168	13.48
632.29966	2.93
632.31764	3.78
632.33562	0.58
632.35359	8.58
632.37157	7.93
632.38954	3.28
632.40751	-1.52
632.42547	-5.87
632.44344	14.98
632.4614	5.13
632.47936	0.38
632.49731	1.18
632.51527	0.23
632.53322	10.13
632.55117	7.53
632.56911	5.73
632.58706	-2.52
632.605	-2.62
632.62294	3.33
632.64087	9.03
632.65881	-5.12
632.67674	0.73
632.69467	0.23
632.7126	4.28
632.73052	9.33
632.74844	7.63
632.76636	8.63
632.78428	15.58
632.80219	24.58
632.8201	26.83
632.83801	5.73
632.85592	2.38
632.87383	15.73
632.89173	2.53
632.90963	-0.62
632.92753	6.63
632.94542	5.18
632.96331	8.28
632.9812	10.28
632.99909	6.28
633.01697	2.03
633.03486	6.88
633.05274	0.78
633.07061	2.28
633.08849	5.38
633.10636	13.93
633.12423	15.78
633.1421	8.38
633.15997	21.28
633.17783	8.88
633.19569	11.58
633.21355	11.98
633.2314	15.58
633.24926	-0.47
633.26711	1.28
633.28495	5.93
633.3028	-1.32
633.32064	4.18
633.33848	12.18
633.35632	21.33
633.37416	16.13
633.39199	5.53
633.40982	-0.42
633.42765	5.93
633.44548	5.23
633.4633	-0.97
633.48112	-1.22
633.49894	-4.32
633.51676	4.63
633.53457	0.68
633.55238	6.03
633.57019	-0.32
633.588	-3.27
633.6058	-5.27
633.6236	7.68
633.6414	6.48
633.6592	-1.87
633.67699	-5.67
633.69478	0.03
633.71257	16.53
633.73036	17.53
633.74815	0.18
633.76593	-0.62
633.78371	6.13
633.80148	1.68
633.81926	-0.32
633.83703	-0.37
633.8548	-18.37
633.87257	-15.72
633.89033	-7.47
633.90809	9.28
633.92585	3.93
633.94361	-1.67
633.96137	1.78
633.97912	8.73
633.99687	-10.12
634.01462	6.33
634.03236	12.98
634.0501	13.78
634.06784	-2.87
634.08558	14.13
634.10332	14.28
634.12105	6.78
634.13878	15.93
634.15651	12.58
634.17423	5.18
634.19196	0.78
634.20968	2.08
634.22739	12.93
634.24511	12.33
634.26282	11.73
634.28053	20.68
634.29824	9.48
634.31595	7.63
634.33365	1.13
634.35135	-5.52
634.36905	-8.87
634.38675	6.43
634.40444	6.78
634.42213	-1.62
634.43982	1.53
634.4575	-1.92
634.47519	10.83
634.49287	22.48
634.51055	1.48
634.52822	1.13
634.5459	4.18
634.56357	1.33
634.58124	-12.27
634.59891	6.83
634.61657	6.58
634.63423	13.28
634.65189	15.83
634.66955	0.23
634.6872	12.73
634.70485	5.83
634.7225	3.03
634.74015	12.43
634.75779	5.23
634.77544	3.28
634.79307	1.93
634.81071	13.78
634.82835	7.23
634.84598	-0.27
634.86361	-3.07
634.88123	12.03
634.89886	1.98
634.91648	1.33
634.9341	1.68
634.95172	9.13
634.96933	4.28
634.98695	10.68
635.00456	3.98
635.02216	10.23
635.03977	10.13
635.05737	2.48
635.07497	-1.67
635.09257	10.33
635.11016	12.03
635.12776	8.23
635.14535	0.78
635.16294	16.83
635.18052	6.23
635.1981	7.08
635.21569	6.83
635.23326	2.78
635.25084	11.73
635.26841	0.38
635.28598	5.88
635.30355	1.08
635.32112	-3.62
635.33868	-10.72
635.35624	-6.92
635.3738	0.98
635.39136	-3.92
635.40891	-6.07
635.42646	4.58
635.44401	7.13
635.46155	-0.27
635.4791	3.68
635.49664	8.83
635.51418	19.43
635.53171	4.28
635.54925	4.98
635.56678	0.33
635.58431	6.48
635.60184	18.33
635.61936	16.78
635.63688	-1.92
635.6544	8.68
635.67192	-0.92
635.68943	5.58
635.70694	2.83
635.72445	5.38
635.74196	-1.72
635.75946	-5.37
635.77697	-3.62
635.79447	3.23
635.81196	11.93
635.82946	0.23
635.84695	-5.27
635.86444	5.93
635.88193	4.63
635.89941	10.43
635.91689	4.18
635.93437	-2.27
635.95185	-0.47
635.96933	-2.52
635.9868	11.63
636.00427	29.18
636.02174	9.08
636.0392	1.63
636.05666	20.18
636.07412	6.68
636.09158	0.78
636.10904	-2.17
636.12649	5.63
636.14394	4.48
636.16139	14.93
636.17883	3.98
636.19628	-0.12
636.21372	-5.92
636.23116	1.33
636.24859	-3.62
636.26602	4.08
636.28345	5.83
636.30088	7.18
636.31831	2.38
636.33573	2.48
636.35315	3.93
636.37057	7.28
636.38799	1.28
636.4054	8.28
636.42281	13.93
636.44022	8.13
636.45763	-2.57
636.47503	-3.37
636.49243	-4.72
636.50983	-5.82
636.52723	0.28
636.54462	2.03
636.56201	0.68
636.5794	-4.77
636.59679	-2.12
636.61417	3.03
636.63155	-2.02
636.64893	17.33
636.66631	12.73
636.68368	4.23
636.70106	-6.27
636.71843	-10.37
636.73579	-6.97
636.75316	4.88
636.77052	4.23
636.78788	8.88
636.80524	3.28
636.82259	-6.22
636.83994	-4.77
636.85729	-5.37
636.87464	-9.42
636.89198	-3.77
636.90933	15.38
636.92667	8.93
636.944	-3.57
636.96134	-6.37
636.97867	-1.72
636.996	1.38
637.01333	0.58
637.03066	-2.87
637.04798	-12.42
637.0653	0.48
637.08262	1.43
637.09993	-0.77
637.11724	-3.92
637.13455	6.38
637.15186	14.23
637.16917	8.48
637.18647	0.38
637.20377	9.88
637.22107	3.68
637.23837	6.73
637.25566	21.28
637.27295	2.53
637.29024	7.53
637.30752	-4.77
637.32481	-0.32
637.34209	7.73
637.35937	19.18
637.37664	12.73
637.39392	4.93
637.41119	-1.27
637.42846	5.78
637.44572	-0.77
637.46299	-1.12
637.48025	18.48
637.49751	4.68
637.51476	-2.07
637.53202	8.23
637.54927	0.43
637.56652	-0.72
637.58376	2.78
637.60101	-1.22
637.61825	8.53
637.63549	5.83
637.65273	3.68
637.66996	-0.72
637.68719	3.13
637.70442	3.83
637.72165	2.93
637.73887	8.98
637.7561	10.93
637.77332	5.58
637.79053	0.18
637.80775	9.23
637.82496	4.48
637.84217	5.98
637.85938	-0.42
637.87658	2.03
637.89378	2.63
637.91098	-2.07
637.92818	-7.37
637.94538	5.08
637.96257	13.98
637.97976	7.33
637.99695	0.68
638.01413	-11.87
638.03132	-6.67
638.0485	-0.37
638.06567	-9.72
638.08285	0.68
638.10002	2.13
638.11719	-2.02
638.13436	-3.47
638.15153	0.33
638.16869	-7.82
638.18585	-4.67
638.20301	-7.17
638.22016	-15.42
638.23732	-12.72
638.25447	-7.37
638.27162	0.78
638.28876	-3.07
638.30591	-3.67
638.32305	3.23
638.34019	11.08
638.35732	10.88
638.37446	14.03
638.39159	-0.92
638.40872	-8.27
638.42584	-3.47
638.44297	-0.72
638.46009	-3.97
638.47721	1.58
638.49432	12.33
638.51144	8.38
638.52855	8.38
638.54566	-6.02
638.56276	0.58
638.57987	4.63
638.59697	7.08
638.61407	0.08
638.63117	-0.47
638.64826	4.33
638.66535	1.48
638.68244	-0.42
638.69953	3.53
638.71661	7.53
638.7337	-2.12
638.75078	-1.62
638.76785	1.88
638.78493	-2.42
638.802	-8.17
638.81907	-0.12
638.83614	3.88
638.8532	13.73
638.87026	-0.27
638.88732	-10.42
638.90438	-1.47
638.92144	6.73
638.93849	12.73
638.95554	9.88
638.97259	2.38
638.98963	4.83
639.00668	12.18
639.02372	8.08
639.04075	13.13
639.05779	9.48
639.07482	7.08
639.09185	12.23
639.10888	-8.57
639.12591	-9.62
639.14293	-4.87
639.15995	3.03
639.17697	20.93
639.19398	22.73
639.211	25.53
639.22801	16.88
639.24502	1.23
639.26202	-0.87
639.27903	-1.72
639.29603	6.43
639.31303	14.98
639.33002	-0.72
639.34702	2.18
639.36401	0.68
639.381	0.13
639.39798	6.33
639.41497	10.93
639.43195	12.28
639.44893	1.53
639.4659	7.98
639.48288	10.08
639.49985	12.58
639.51682	6.03
639.53379	-5.72
639.55075	-10.22
639.56771	-16.72
639.58467	-5.87
639.60163	1.98
639.61858	1.78
639.63553	7.43
639.65248	5.43
639.66943	-9.12
639.68638	-5.87
639.70332	7.63
639.72026	10.18
639.73719	3.58
639.75413	8.78
639.77106	17.38
639.78799	29.38
639.80492	23.93
639.82184	5.68
639.83877	-0.37
639.85569	7.33
639.8726	7.93
639.88952	9.98
639.90643	-2.22
639.92334	3.33
639.94025	3.73
639.95716	4.58
639.97406	2.23
639.99096	9.98
640.00786	3.48
640.02475	3.18
640.04165	-0.57
640.05854	2.58
640.07542	-0.02
640.09231	8.78
640.10919	7.68
640.12607	8.43
640.14295	-8.42
640.15983	-5.97
640.1767	2.08
640.19357	-1.47
640.21044	-4.12
640.22731	6.53
640.24417	8.33
640.26103	14.53
640.27789	14.28
640.29475	1.58
640.3116	-10.32
640.32845	-5.12
640.3453	1.83
640.36215	0.48
640.37899	6.13
640.39583	17.63
640.41267	22.48
640.42951	1.63
640.44634	-14.67
640.46317	-1.82
640.48	-5.02
640.49683	-7.82
640.51365	-7.92
640.53048	0.63
640.5473	3.53
640.56411	2.03
640.58093	9.83
640.59774	10.68
640.61455	-1.72
640.63136	0.43
640.64816	-2.22
640.66496	1.43
640.68176	10.23
640.69856	-6.82
640.71535	-6.72
640.73215	-2.52
640.74894	0.18
640.76572	12.23
640.78251	10.43
640.79929	5.63
640.81607	6.28
640.83285	3.83
640.84963	9.98
640.8664	13.03
640.88317	20.53
640.89994	4.58
640.9167	2.83
640.93346	-6.62
640.95022	-1.97
640.96698	-0.42
640.98374	-2.57
641.00049	-5.82
641.01724	-4.57
641.03399	-9.52
641.05074	-8.52
641.06748	-6.07
641.08422	9.88
641.10096	4.68
641.11769	11.78
641.13443	2.83
641.15116	-1.17
641.16789	-1.37
641.18461	-4.52
641.20134	13.88
641.21806	13.48
641.23478	2.18
641.25149	4.63
641.26821	9.93
641.28492	-0.87
641.30163	0.43
641.31833	-5.97
641.33504	-1.47
641.35174	-2.67
641.36844	4.98
641.38514	6.18
641.40183	6.43
641.41852	2.68
641.43521	6.83
641.4519	25.98
641.46858	14.78
641.48526	-1.22
641.50194	1.38
641.51862	-6.72
641.53529	-1.32
641.55197	13.73
641.56864	19.23
641.5853	0.68
641.60197	-3.32
641.61863	3.23
641.63529	-8.47
641.65195	-5.67
641.6686	5.88
641.68526	9.08
641.70191	12.58
641.71855	17.68
641.7352	13.83
641.75184	2.13
641.76848	-0.17
641.78512	-1.82
641.80175	-0.47
641.81839	11.93
641.83502	14.98
641.85164	13.48
641.86827	13.18
641.88489	9.33
641.90151	0.83
641.91813	1.23
641.93475	7.73
641.95136	1.53
641.96797	-5.27
641.98458	-10.27
642.00119	3.58
642.01779	6.28
642.03439	7.03
642.05099	3.18
642.06758	-8.12
642.08418	0.83
642.10077	3.98
642.11736	7.08
642.13394	1.83
642.15053	5.08
642.16711	0.23
642.18369	-4.02
642.20026	9.98
642.21684	13.63
642.23341	15.73
642.24998	12.18
642.26654	17.58
642.28311	10.78
642.29967	-0.02
642.31623	-8.47
642.33279	4.58
642.34934	0.93
642.36589	-11.37
642.38244	-10.27
642.39899	50.18
642.41553	121.43
642.43207	16.98
642.44861	-10.92
642.46515	1.13
642.48169	5.28
642.49822	-0.32
642.51475	0.28
642.53127	-3.02
642.5478	-0.87
642.56432	8.68
642.58084	8.88
642.59736	2.68
642.61387	8.93
642.63039	15.98
642.6469	9.78
642.6634	18.48
642.67991	1.93
642.69641	5.93
642.71291	-0.12
642.72941	10.08
642.74591	15.68
642.7624	1.53
642.77889	2.98
642.79538	-2.62
642.81186	-5.62
642.82834	-8.27
642.84483	-3.02
642.8613	0.43
642.87778	-7.52
642.89425	9.73
642.91072	33.88
642.92719	1.18
642.94366	2.83
642.96012	13.08
642.97658	3.53
642.99304	4.13
643.0095	5.33
643.02595	-1.22
643.0424	-2.42
643.05885	6.53
643.0753	-3.27
643.09174	-8.87
643.10818	-7.22
643.12462	-8.17
643.14106	-2.92
643.15749	-4.87
643.17392	1.68
643.19035	23.38
643.20678	14.58
643.2232	1.93
643.23962	13.38
643.25604	7.63
643.27246	-0.12
643.28887	1.63
643.30528	7.73
643.32169	12.18
643.3381	3.48
643.35451	6.33
643.37091	10.28
643.38731	4.53
643.4037	-6.52
643.4201	-2.37
643.43649	8.38
643.45288	16.18
643.46927	6.98
643.48565	2.63
643.50204	9.03
643.51842	9.18
643.53479	-5.42
643.55117	4.83
643.56754	4.58
643.58391	3.63
643.60028	-3.12
643.61664	4.13
643.63301	9.13
643.64937	9.58
643.66572	6.43
643.68208	-2.97
643.69843	1.88
643.71478	-5.02
643.73113	-1.17
643.74748	0.18
643.76382	2.13
643.78016	1.03
643.7965	8.08
643.81283	7.68
643.82917	11.83
643.8455	0.53
643.86183	12.78
643.87815	15.13
643.89448	9.63
643.9108	10.58
643.92712	6.08
643.94343	8.53
643.95974	-5.07
643.97606	-6.77
643.99236	2.88
644.00867	6.98
644.02497	5.38
644.04128	1.03
644.05758	5.48
644.07387	10.43
644.09017	7.93
644.10646	8.38
644.12275	4.48
644.13903	2.98
644.15532	3.33
644.1716	0.78
644.18788	19.53
644.20415	6.28
644.22043	5.93
644.2367	8.78
644.25297	1.38
644.26924	5.18
644.2855	11.33
644.30176	4.88
644.31802	4.23
644.33428	11.53
644.35054	19.43
644.36679	6.53
644.38304	5.08
644.39928	6.08
644.41553	10.18
644.43177	-0.92
644.44801	-5.32
644.46425	-5.47
644.48048	0.03
644.49672	4.28
644.51295	5.68
644.52917	1.08
644.5454	10.18
644.56162	-0.47
644.57784	8.13
644.59406	4.83
644.61028	4.23
644.62649	2.28
644.6427	4.58
644.65891	-3.92
644.67511	-8.37
644.69132	1.93
644.70752	8.38
644.72372	10.78
644.73991	4.03
644.7561	9.43
644.7723	21.58
644.78848	29.43
644.80467	21.38
644.82085	5.63
644.83703	10.53
644.85321	15.83
644.86939	9.38
644.88556	11.33
644.90173	18.53
644.9179	25.03
644.93407	21.28
644.95023	36.78
644.96639	16.43
644.98255	10.18
644.99871	5.48
645.01486	1.88
645.03102	10.88
645.04716	10.68
645.06331	11.58
645.07946	40.38
645.0956	73.23
645.11174	12.98
645.12787	15.58
645.14401	5.93
645.16014	12.73
645.17627	7.73
645.1924	8.63
645.20852	18.48
645.22464	11.73
645.24076	23.33
645.25688	32.88
645.27299	17.38
645.28911	13.48
645.30522	4.03
645.32132	3.93
645.33743	13.18
645.35353	10.88
645.36963	0.68
645.38573	6.13
645.40182	6.53
645.41792	2.63
645.43401	-1.92
645.45009	2.53
645.46618	8.18
645.48226	0.68
645.49834	4.28
645.51442	-7.57
645.5305	-2.47
645.54657	2.13
645.56264	1.43
645.57871	-4.82
645.59477	2.78
645.61084	3.83
645.6269	9.18
645.64296	10.88
645.65901	11.48
645.67507	10.33
645.69112	5.83
645.70716	1.83
645.72321	1.28
645.73925	6.53
645.7553	5.18
645.77133	-4.97
645.78737	3.48
645.8034	14.28
645.81944	22.03
645.83546	6.73
645.85149	23.48
645.86751	6.98
645.88354	-2.07
645.89955	-5.77
645.91557	2.48
645.93159	-2.52
645.9476	0.68
645.96361	2.68
645.97961	7.48
645.99562	10.28
646.01162	14.68
646.02762	8.23
646.04361	0.13
646.05961	-4.72
646.0756	-4.12
646.09159	9.28
646.10758	-0.17
646.12356	9.08
646.13954	12.78
646.15552	6.58
646.1715	15.23
646.18748	11.93
646.20345	3.53
646.21942	-0.92
646.23539	16.18
646.25135	21.18
646.26731	3.78
646.28327	12.38
646.29923	5.98
646.31519	17.13
646.33114	19.03
646.34709	16.18
646.36304	2.68
646.37898	-4.52
646.39493	-8.07
646.41087	-0.22
646.4268	2.23
646.44274	-1.37
646.45867	-1.32
646.4746	8.68
646.49053	6.03
646.50646	-1.02
646.52238	-8.97
646.5383	-5.17
646.55422	-2.67
646.57014	3.18
646.58605	2.63
646.60196	7.03
646.61787	5.18
646.63377	7.43
646.64968	9.73
646.66558	-0.72
646.68148	-7.17
646.69737	8.48
646.71327	5.58
646.72916	-0.67
646.74505	3.58
646.76093	10.08
646.77682	11.28
646.7927	1.98
646.80858	2.58
646.82446	-7.72
646.84033	-2.22
646.8562	-1.17
646.87207	1.78
646.88794	4.53
646.9038	-4.77
646.91966	1.78
646.93552	3.98
646.95138	-0.12
646.96723	7.98
646.98309	15.93
646.99894	6.63
647.01478	5.98
647.03063	16.98
647.04647	1.03
647.06231	-6.07
647.07815	-5.47
647.09398	-0.92
647.10981	3.88
647.12564	-5.22
647.14147	1.48
647.1573	16.68
647.17312	3.33
647.18894	-0.72
647.20476	-6.92
647.22057	-13.57
647.23638	-1.82
647.25219	1.68
647.268	-2.72
647.28381	-0.52
647.29961	11.63
647.31541	2.58
647.33121	-0.12
647.34701	10.73
647.3628	4.83
647.37859	7.13
647.39438	2.23
647.41016	4.78
647.42595	3.08
647.44173	4.13
647.45751	2.23
647.47328	6.68
647.48905	5.23
647.50483	14.18
647.52059	8.63
647.53636	-0.67
647.55212	-5.67
647.56789	10.43
647.58364	39.78
647.5994	8.13
647.61515	3.43
647.63091	4.33
647.64665	5.98
647.6624	4.48
647.67814	-6.32
647.69389	-8.62
647.70963	-4.37
647.72536	-14.67
647.7411	-9.82
647.75683	-4.12
647.77256	6.43
647.78828	5.98
647.80401	0.73
647.81973	4.88
647.83545	7.73
647.85117	6.43
647.86688	4.48
647.88259	0.58
647.8983	6.88
647.91401	14.13
647.92971	11.68
647.94542	-0.47
647.96112	5.48
647.97681	7.53
647.99251	5.43
648.0082	11.78
648.02389	12.23
648.03958	-0.07
648.05526	2.93
648.07095	4.18
648.08663	4.13
648.1023	-4.27
648.11798	-4.67
648.13365	-6.87
648.14932	1.68
648.16499	5.13
648.18066	1.98
648.19632	-3.17
648.21198	-0.12
648.22764	0.58
648.24329	5.48
648.25895	9.08
648.2746	-0.72
648.29025	2.53
648.30589	9.18
648.32153	8.18
648.33718	-0.82
648.35281	14.33
648.36845	32.93
648.38408	68.48
648.39971	5.03
648.41534	-4.37
648.43097	3.78
648.44659	9.58
648.46221	16.63
648.47783	7.93
648.49345	-4.22
648.50906	5.28
648.52467	8.23
648.54028	-4.82
648.55589	-3.32
648.57149	11.88
648.5871	6.68
648.6027	2.83
648.61829	7.68
648.63389	9.03
648.64948	10.08
648.66507	6.43
648.68065	-3.22
648.69624	4.83
648.71182	22.83
648.7274	19.98
648.74298	17.18
648.75855	26.73
648.77412	19.43
648.78969	4.73
648.80526	-8.42
648.82083	2.43
648.83639	6.83
648.85195	-2.07
648.8675	-1.47
648.88306	5.53
648.89861	1.63
648.91416	-1.77
648.92971	5.43
648.94526	15.18
648.9608	15.08
648.97634	9.63
648.99188	6.78
649.00741	6.48
649.02294	4.28
649.03847	7.18
649.054	-4.52
649.06953	3.78
649.08505	-4.37
649.10057	5.33
649.11609	-2.57
649.13161	6.28
649.14712	5.23
649.16263	-1.32
649.17814	-0.97
649.19364	5.23
649.20915	19.43
649.22465	20.93
649.24015	15.58
649.25564	22.63
649.27114	12.08
649.28663	4.33
649.30212	1.78
649.3176	3.13
649.33309	-6.17
649.34857	-2.27
649.36405	7.98
649.37952	13.83
649.395	10.13
649.41047	16.38
649.42594	10.28
649.4414	1.33
649.45687	6.93
649.47233	-2.77
649.48779	3.38
649.50324	12.68
649.5187	15.58
649.53415	12.48
649.5496	11.48
649.56505	9.93
649.58049	8.83
649.59593	4.33
649.61137	5.48
649.62681	12.28
649.64224	4.28
649.65768	0.28
649.67311	15.28
649.68853	20.43
649.70396	10.33
649.71938	13.48
649.7348	11.13
649.75022	22.08
649.76563	4.28
649.78105	6.98
649.79646	-4.97
649.81186	9.33
649.82727	13.48
649.84267	1.23
649.85807	8.63
649.87347	-0.67
649.88886	4.38
649.90426	7.93
649.91965	4.23
649.93504	-1.17
649.95042	10.73
649.9658	-2.52
649.98119	2.48
649.99656	7.08
650.01194	-1.27
650.02731	-1.02
650.04268	0.03
650.05805	1.33
650.07342	2.13
650.08878	5.28
650.10414	6.73
650.1195	-5.02
650.13486	-3.17
650.15021	-2.27
650.16556	10.38
650.18091	10.08
650.19626	11.88
650.2116	13.43
650.22694	3.88
650.24228	10.93
650.25762	8.88
650.27295	5.68
650.28828	2.58
650.30361	7.68
650.31894	2.08
650.33426	-3.37
650.34958	2.13
650.3649	25.38
650.38022	12.08
650.39553	-2.52
650.41085	5.08
650.42616	4.08
650.44146	6.83
650.45677	3.48
650.47207	9.88
650.48737	18.78
650.50267	-2.42
650.51796	-5.02
650.53325	0.78
650.54854	12.43
650.56383	7.78
650.57911	2.93
650.5944	6.03
650.60968	9.03
650.62495	9.88
650.64023	7.83
650.6555	-5.52
650.67077	-3.12
650.68604	3.38
650.70131	7.48
650.71657	9.88
650.73183	16.98
650.74709	11.08
650.76234	5.63
650.77759	10.43
650.79285	9.23
650.80809	7.53
650.82334	1.93
650.83858	1.68
650.85382	6.13
650.86906	10.43
650.8843	21.33
650.89953	5.88
650.91476	2.93
650.92999	-0.42
650.94522	2.53
650.96044	10.53
650.97566	7.78
650.99088	0.68
651.00609	-2.97
651.02131	0.63
651.03652	6.38
651.05173	2.78
651.06693	-13.47
651.08214	-4.72
651.09734	-3.42
651.11254	-0.62
651.12773	-3.62
651.14293	7.18
651.15812	0.08
651.17331	1.58
651.1885	12.93
651.20368	-1.82
651.21886	-7.72
651.23404	6.83
651.24922	9.98
651.26439	6.48
651.27956	4.03
651.29473	-2.92
651.3099	9.73
651.32507	-8.92
651.34023	-1.47
651.35539	-1.82
651.37054	-11.27
651.3857	-14.67
651.40085	0.88
651.416	7.73
651.43115	3.13
651.44629	-2.27
651.46144	-5.97
651.47658	5.38
651.49171	23.53
651.50685	12.28
651.52198	5.43
651.53711	2.83
651.55224	-4.27
651.56736	4.23
651.58249	13.13
651.59761	11.43
651.61273	-11.62
651.62784	1.63
651.64295	2.23
651.65806	-0.17
651.67317	-0.42
651.68828	-1.42
651.70338	5.73
651.71848	14.43
651.73358	21.33
651.74868	-5.07
651.76377	2.28
651.77886	6.38
651.79395	2.43
651.80904	-2.17
651.82412	10.68
651.8392	2.08
651.85428	5.73
651.86935	7.83
651.88443	11.48
651.8995	3.28
651.91457	-3.37
651.92963	2.48
651.9447	19.73
651.95976	9.63
651.97482	3.78
651.98988	6.33
652.00493	-0.82
652.01998	7.83
652.03503	16.53
652.05008	23.98
652.06512	56.48
652.08016	5.98
652.0952	6.48
652.11024	30.18
652.12527	11.08
652.14031	3.38
652.15534	4.68
652.17036	10.03
652.18539	2.13
652.20041	7.38
652.21543	8.38
652.23045	-1.37
652.24546	1.48
652.26047	12.13
652.27548	8.43
652.29049	5.38
652.3055	0.18
652.3205	10.48
652.3355	8.03
652.3505	6.48
652.36549	9.23
652.38048	16.28
652.39547	14.33
652.41046	4.23
652.42545	17.78
652.44043	15.03
652.45541	2.88
652.47039	12.43
652.48536	5.23
652.50034	-5.27
652.51531	-5.72
652.53028	1.53
652.54524	2.23
652.5602	1.33
652.57517	-4.82
652.59012	29.58
652.60508	72.83
652.62003	8.83
652.63498	-1.87
652.64993	-0.57
652.66488	1.33
652.67982	9.33
652.69476	11.28
652.7097	-0.32
652.72464	-2.22
652.73957	2.83
652.7545	8.98
652.76943	25.03
652.78436	8.63
652.79928	5.23
652.8142	11.38
652.82912	7.23
652.84404	2.63
652.85895	-4.37
652.87387	5.53
652.88877	16.63
652.90368	15.88
652.91859	-3.77
652.93349	2.18
652.94839	5.13
652.96328	3.43
652.97818	-1.57
652.99307	3.53
653.00796	9.63
653.02285	2.03
653.03773	3.93
653.05261	-0.82
653.06749	-3.47
653.08237	-4.47
653.09725	3.98
653.11212	4.73
653.12699	1.73
653.14186	12.53
653.15672	20.58
653.17158	2.58
653.18644	13.68
653.2013	4.98
653.21616	9.23
653.23101	14.73
653.24586	-0.47
653.26071	-8.82
653.27555	13.73
653.29039	18.83
653.30524	3.88
653.32007	4.43
653.33491	91.43
653.34974	219.63
653.36457	23.38
653.3794	-0.97
653.39423	-4.72
653.40905	-5.07
653.42387	-1.82
653.43869	3.08
653.45351	-2.42
653.46832	-5.07
653.48313	-3.57
653.49794	0.73
653.51274	9.03
653.52755	12.88
653.54235	6.23
653.55715	-9.07
653.57194	1.88
653.58674	11.88
653.60153	7.03
653.61632	4.53
653.6311	-6.47
653.64589	-1.92
653.66067	12.38
653.67545	8.13
653.69023	-4.32
653.705	-7.32
653.71977	-4.37
653.73454	-2.67
653.74931	0.08
653.76407	5.43
653.77883	6.98
653.79359	7.53
653.80835	2.83
653.8231	5.28
653.83786	10.63
653.85261	21.13
653.86735	0.78
653.8821	7.28
653.89684	4.68
653.91158	4.98
653.92632	14.53
653.94105	12.48
653.95579	12.63
653.97052	-2.52
653.98524	-1.47
653.99997	4.48
654.01469	2.58
654.02941	7.38
654.04413	13.88
654.05884	6.73
654.07356	16.03
654.08827	50.93
654.10297	93.93
654.11768	21.28
654.13238	23.18
654.14708	17.03
654.16178	2.48
654.17648	4.23
654.19117	-5.72
654.20586	-5.87
654.22055	8.53
654.23524	10.68
654.24992	39.78
654.2646	61.73
654.27928	27.03
654.29395	18.68
654.30863	25.23
654.3233	27.18
654.33797	14.73
654.35263	15.23
654.3673	18.58
654.38196	17.68
654.39662	0.18
654.41127	5.18
654.42593	16.63
654.44058	18.68
654.45523	3.98
654.46987	2.88
654.48452	11.53
654.49916	12.18
654.5138	14.48
654.52844	11.48
654.54307	14.08
654.5577	22.93
654.57233	13.38
654.58696	11.03
654.60158	13.03
654.6162	8.23
654.63082	5.93
654.64544	11.08
654.66005	8.58
654.67467	8.08
654.68928	16.38
654.70388	17.63
654.71849	17.03
654.73309	48.03
654.74769	103.03
654.76229	18.38
654.77688	26.13
654.79148	15.83
654.80607	4.08
654.82065	19.73
654.83524	18.98
654.84982	13.78
654.8644	9.93
654.87898	6.03
654.89355	9.33
654.90813	12.58
654.9227	8.83
654.93727	6.73
654.95183	12.58
654.96639	17.33
654.98095	19.73
654.99551	10.33
655.01007	20.93
655.02462	6.78
655.03917	8.63
655.05372	10.13
655.06827	13.48
655.08281	25.68
655.09735	25.63
655.11189	27.23
655.12643	24.38
655.14096	22.68
655.15549	24.48
655.17002	16.03
655.18454	17.08
655.19907	20.93
655.21359	31.88
655.22811	38.88
655.24262	31.83
655.25714	32.33
655.27165	44.08
655.28616	43.98
655.30067	48.23
655.31517	58.88
655.32967	64.73
655.34417	86.13
655.35867	139.38
655.37316	326.98
655.38765	1045.78
655.40214	3116.18
655.41663	6655.88
655.43111	9423.18
655.4456	8972.63
655.46008	6565.73
655.47455	4763.63
655.48903	3936.68
655.5035	3216.68
655.51797	2442.93
655.53244	1704.68
655.5469	1209.78
655.56136	1306.53
655.57582	2655.38
655.59028	5692.08
655.60474	8838.18
655.61919	9392.18
655.63364	7356.43
655.64809	5207.98
655.66253	4107.08
655.67697	3399.63
655.69141	2685.43
655.70585	1905.53
655.72029	1224.13
655.73472	715.08
655.74915	399.38
655.76358	229.68
655.778	148.08
655.79243	123.03
655.80685	87.43
655.82127	60.98
655.83568	51.68
655.8501	56.93
655.86451	39.68
655.87891	39.68
655.89332	33.98
655.90772	20.03
655.92212	16.78
655.93652	31.93
655.95092	24.38
655.96531	15.38
655.9797	11.18
655.99409	23.03
656.00848	16.33
656.02286	25.43
656.03724	25.23
656.05162	17.03
656.066	4.53
656.08037	9.28
656.09475	13.08
656.10911	9.43
656.12348	12.83
656.13784	17.98
656.15221	12.13
656.16657	23.58
656.18092	15.33
656.19528	18.98
656.20963	11.33
656.22398	6.13
656.23833	19.53
656.25267	19.38
656.26701	21.33
656.28135	3.93
656.29569	9.33
656.31002	20.48
656.32436	26.38
656.33869	24.53
656.35301	10.88
656.36734	13.23
656.38166	3.33
656.39598	-1.52
656.4103	-5.12
656.42461	1.08
656.43892	5.58
656.45323	2.03
656.46754	6.43
656.48185	8.03
656.49615	3.03
656.51045	8.08
656.52475	9.68
656.53904	5.73
656.55334	-0.07
656.56763	5.93
656.58192	7.23
656.5962	7.38
656.61048	1.28
656.62476	3.93
656.63904	8.13
656.65332	8.23
656.66759	2.98
656.68186	3.33
656.69613	6.48
656.7104	0.33
656.72466	12.93
656.73892	12.58
656.75318	16.98
656.76744	2.63
656.78169	6.93
656.79594	20.73
656.81019	34.03
656.82444	-1.82
656.83868	7.03
656.85292	7.73
656.86716	2.03
656.8814	8.08
656.89563	2.08
656.90986	1.78
656.92409	6.48
656.93832	12.03
656.95254	7.38
656.96676	7.88
656.98098	19.13
656.9952	4.73
657.00941	9.98
657.02363	-5.47
657.03784	-4.12
657.05204	4.28
657.06625	21.03
657.08045	5.38
657.09465	3.18
657.10885	-5.87
657.12304	2.38
657.13723	1.23
657.15142	3.93
657.16561	-0.42
657.1798	-4.02
657.19398	-10.32
657.20816	3.03
657.22234	2.43
657.23651	-0.62
657.25068	4.13
657.26485	3.43
657.27902	-1.17
657.29319	-5.97
657.30735	2.38
657.32151	0.93
657.33567	8.28
657.34982	23.68
657.36398	16.18
657.37813	16.83
657.39227	2.43
657.40642	16.33
657.42056	18.98
657.4347	5.68
657.44884	6.88
657.46298	3.98
657.47711	13.78
657.49124	18.68
657.50537	2.23
657.5195	2.33
657.53362	-3.22
657.54774	-1.67
657.56186	17.38
657.57598	24.88
657.59009	8.23
657.6042	9.33
657.61831	5.33
657.63242	7.28
657.64652	8.43
657.66062	9.93
657.67472	10.48
657.68882	9.93
657.70291	4.03
657.717	4.38
657.73109	3.63
657.74518	12.18
657.75926	4.28
657.77335	-3.27
657.78742	2.43
657.8015	-0.82
657.81558	7.63
657.82965	9.28
657.84372	-3.87
657.85778	8.68
657.87185	1.13
657.88591	8.38
657.89997	1.58
657.91403	14.83
657.92808	17.68
657.94214	8.43
657.95618	8.13
657.97023	1.18
657.98428	10.23
657.99832	30.83
658.01236	9.83
658.0264	-10.62
658.04043	0.08
658.05447	6.63
658.0685	-10.17
658.08252	-2.47
658.09655	7.93
658.11057	15.78
658.12459	17.58
658.13861	22.33
658.15263	7.83
658.16664	19.18
658.18065	6.83
658.19466	-2.12
658.20866	-3.17
658.22267	-1.12
658.23667	9.13
658.25067	6.83
658.26466	9.03
658.27865	10.23
658.29265	4.33
658.30663	6.78
658.32062	6.43
658.3346	4.98
658.34858	2.93
658.36256	4.33
658.37654	1.83
658.39051	11.48
658.40448	11.33
658.41845	7.83
658.43242	4.03
658.44638	2.03
658.46035	0.03
658.4743	7.98
658.48826	14.38
658.50221	16.78
658.51617	9.48
658.53012	-0.37
658.54406	0.28
658.55801	6.38
658.57195	1.13
658.58589	12.28
658.59983	9.98
658.61376	-3.67
658.62769	0.68
658.64162	11.53
658.65555	9.93
658.66947	2.38
658.6834	37.63
658.69731	93.33
658.71123	16.13
658.72515	13.08
658.73906	3.98
658.75297	8.63
658.76688	6.03
658.78078	13.18
658.79468	2.08
658.80858	-8.62
658.82248	-0.62
658.83638	6.13
658.85027	8.98
658.86416	6.93
658.87805	8.58
658.89193	-1.17
658.90582	3.18
658.9197	5.88
658.93357	7.48
658.94745	4.28
658.96132	-3.97
658.97519	3.28
658.98906	-9.27
659.00293	-5.62
659.01679	-7.12
659.03065	-1.92
659.04451	11.03
659.05837	6.98
659.07222	3.88
659.08607	7.33
659.09992	13.08
659.11377	9.33
659.12761	-1.42
659.14145	-0.97
659.15529	9.23
659.16913	11.08
659.18296	6.48
659.19679	0.43
659.21062	8.13
659.22445	4.78
659.23827	30.53
659.25209	24.63
659.26591	15.68
659.27973	17.68
659.29354	4.08
659.30735	0.53
659.32116	5.23
659.33497	2.43
659.34877	-11.07
659.36258	-2.82
659.37637	13.83
659.39017	10.73
659.40397	-6.57
659.41776	0.93
659.43155	5.13
659.44533	10.23
659.45912	18.28
659.4729	-1.47
659.48668	7.83
659.50046	2.68
659.51423	0.53
659.52801	8.98
659.54178	16.98
659.55554	2.68
659.56931	6.88
659.58307	7.48
659.59683	10.13
659.61059	8.08
659.62434	34.53
659.6381	63.68
659.65185	4.38
659.6656	-1.02
659.67934	0.58
659.69308	1.93
659.70682	6.78
659.72056	8.48
659.7343	10.28
659.74803	0.08
659.76176	-0.37
659.77549	0.53
659.78922	14.28
659.80294	-6.57
659.81666	-3.42
659.83038	7.63
659.84409	7.83
659.85781	1.18
659.87152	-0.42
659.88523	3.03
659.89893	3.23
659.91264	6.28
659.92634	17.83
659.94004	12.78
659.95373	9.48
659.96743	12.93
659.98112	16.58
659.99481	11.63
660.00849	7.83
660.02218	10.43
660.03586	13.68
660.04954	-4.67
660.06322	1.58
660.07689	19.63
660.09056	25.98
660.10423	-4.47
660.1179	2.73
660.13156	12.13
660.14522	5.13
660.15888	-1.27
660.17254	1.63
660.1862	10.68
660.19985	6.08
660.2135	-1.02
660.22714	3.88
660.24079	3.43
660.25443	1.03
660.26807	8.48
660.28171	12.58
660.29534	9.78
660.30898	6.03
660.32261	-0.32
660.33623	-9.37
660.34986	-9.12
660.36348	9.43
660.3771	7.28
660.39072	20.88
660.40433	17.43
660.41795	12.83
660.43156	-0.12
660.44517	4.43
660.45877	10.48
660.47237	4.98
660.48598	0.88
660.49957	-2.02
660.51317	2.88
660.52676	4.23
660.54035	12.98
660.55394	17.63
660.56753	6.88
660.58111	11.23
660.59469	17.68
660.60827	-2.37
660.62185	7.68
660.63542	16.78
660.64899	12.08
660.66256	18.33
660.67613	15.78
660.68969	17.43
660.70325	15.38
660.71681	2.93
660.73037	-2.27
660.74392	4.03
660.75747	0.93
660.77102	4.63
660.78457	1.28
660.79811	9.73
660.81165	16.53
660.82519	8.88
660.83873	2.68
660.85226	8.98
660.86579	13.88
660.87932	6.48
660.89285	4.18
660.90637	14.18
660.9199	10.73
660.93342	8.53
660.94693	16.88
660.96045	4.73
660.97396	9.73
660.98747	15.33
661.00098	0.48
661.01448	-3.87
661.02798	0.78
661.04148	4.63
661.05498	16.98
661.06848	9.18
661.08197	-2.72
661.09546	21.53
661.10895	40.18
661.12243	13.88
661.13591	8.98
661.14939	-5.47
661.16287	2.23
661.17635	16.43
661.18982	12.13
661.20329	22.98
661.21676	20.33
661.23022	9.63
661.24369	7.58
661.25715	9.78
661.27061	4.53
661.28406	14.43
661.29752	-6.02
661.31097	-0.87
661.32441	6.48
661.33786	-2.07
661.3513	-1.92
661.36474	1.38
661.37818	6.78
661.39162	5.88
661.40505	45.63
661.41848	112.63
661.43191	18.78
661.44534	5.68
661.45876	9.73
661.47218	14.03
661.4856	10.93
661.49902	11.83
661.51243	1.28
661.52585	16.23
661.53925	12.83
661.55266	8.23
661.56606	2.88
661.57947	7.68
661.59287	-3.37
661.60626	-1.42
661.61966	13.48
661.63305	4.08
661.64644	6.73
661.65983	5.88
661.67321	12.33
661.68659	7.58
661.69997	20.83
661.71335	11.93
661.72672	21.38
661.7401	45.03
661.75347	6.38
661.76683	10.28
661.7802	18.73
661.79356	24.63
661.80692	2.48
661.82028	8.43
661.83363	3.93
661.84698	0.38
661.86033	11.98
661.87368	11.93
661.88703	11.03
661.90037	9.03
661.91371	4.43
661.92705	0.03
661.94038	2.58
661.95372	5.48
661.96705	22.78
661.98038	30.73
661.9937	12.18
662.00702	4.93
662.02034	14.68
662.03366	12.88
662.04698	8.33
662.06029	2.38
662.0736	-0.72
662.08691	2.23
662.10022	6.28
662.11352	9.63
662.12682	10.78
662.14012	-9.97
662.15342	-0.07
662.16671	11.33
662.18	0.53
662.19329	2.68
662.20658	1.58
662.21986	2.63
662.23314	2.18
662.24642	-3.02
662.2597	8.63
662.27297	7.68
662.28624	-0.47
662.29951	7.93
662.31278	-0.52
662.32604	-3.67
662.3393	3.38
662.35256	4.53
662.36582	1.48
662.37907	-2.27
662.39233	6.13
662.40558	12.38
662.41882	13.28
662.43207	14.08
662.44531	5.13
662.45855	-2.42
662.47179	1.28
662.48502	4.08
662.49825	3.08
662.51148	12.58
662.52471	14.48
662.53794	1.03
662.55116	12.03
662.56438	4.33
662.5776	1.48
662.59081	11.33
662.60402	16.23
662.61723	8.98
662.63044	13.83
662.64365	10.88
662.65685	4.43
662.67005	13.98
662.68325	22.18
662.69644	1.48
662.70964	5.78
662.72283	8.33
662.73601	9.48
662.7492	12.68
662.76238	10.78
662.77556	7.83
662.78874	14.43
662.80192	13.93
662.81509	19.53
662.82826	12.58
662.84143	-1.22
662.8546	4.18
662.86776	2.73
662.88092	-4.52
662.89408	0.03
662.90724	9.73
662.92039	29.63
662.93354	4.88
662.94669	-0.37
662.95984	5.78
662.97298	2.73
662.98612	-2.77
662.99926	-3.77
663.0124	9.28
663.02553	8.33
663.03866	9.88
663.05179	7.08
663.06492	11.13
663.07804	12.38
663.09116	17.68
663.10428	3.08
663.1174	-0.22
663.13052	5.38
663.14363	4.38
663.15674	-2.17
663.16984	5.43
663.18295	11.53
663.19605	14.53
663.20915	12.28
663.22225	8.63
663.23534	12.98
663.24843	-0.67
663.26152	-3.82
663.27461	-2.57
663.2877	2.83
663.30078	4.03
663.31386	10.33
663.32694	8.53
663.34001	18.43
663.35308	14.48
663.36615	2.53
663.37922	13.93
663.39229	21.08
663.40535	-3.27
663.41841	-3.42
663.43147	-1.02
663.44452	9.23
663.45758	15.08
663.47063	10.53
663.48368	5.58
663.49672	5.48
663.50977	-5.42
663.52281	1.58
663.53584	0.78
663.54888	-5.47
663.56191	-4.52
663.57494	-7.47
663.58797	-7.27
663.601	3.28
663.61402	5.33
663.62704	11.98
663.64006	4.43
663.65308	4.53
663.66609	-3.52
663.6791	-2.47
663.69211	20.08
663.70512	23.48
663.71812	3.38
663.73112	-2.32
663.74412	3.63
663.75712	14.73
663.77011	6.48
663.78311	8.53
663.79609	13.48
663.80908	4.88
663.82207	1.53
663.83505	-7.32
663.84803	-0.67
663.861	4.43
663.87398	6.63
663.88695	6.83
663.89992	3.03
663.91289	2.38
663.92585	8.28
663.93881	-0.52
663.95177	10.73
663.96473	28.08
663.97769	11.68
663.99064	-4.22
664.00359	2.43
664.01654	16.03
664.02948	15.68
664.04242	12.98
664.05536	4.48
664.0683	8.93
664.08124	10.23
664.09417	13.18
664.1071	11.98
664.12003	10.98
664.13295	3.23
664.14588	0.78
664.1588	0.88
664.17171	-0.92
664.18463	7.43
664.19754	0.53
664.21045	9.93
664.22336	6.43
664.23627	12.58
664.24917	11.93
664.26207	5.48
664.27497	3.53
664.28787	12.28
664.30076	17.08
664.31365	3.73
664.32654	5.38
664.33942	0.08
664.35231	4.78
664.36519	3.83
664.37807	4.43
664.39094	10.78
664.40382	18.63
664.41669	12.63
664.42956	8.38
664.44242	8.78
664.45529	2.83
664.46815	1.73
664.48101	10.43
664.49387	16.88
664.50672	-3.27
664.51957	-0.92
664.53242	8.73
664.54527	6.18
664.55811	10.03
664.57095	6.93
664.58379	6.38
664.59663	-3.17
664.60946	8.23
664.6223	15.58
664.63513	13.68
664.64795	13.38
664.66078	8.28
664.6736	5.73
664.68642	2.83
664.69924	2.18
664.71205	6.43
664.72486	0.68
664.73767	1.63
664.75048	11.58
664.76329	10.23
664.77609	3.33
664.78889	19.03
664.80169	12.43
664.81448	1.33
664.82728	1.88
664.84007	7.08
664.85285	0.88
664.86564	7.93
664.87842	-2.47
664.8912	-2.17
664.90398	13.83
664.91676	16.38
664.92953	4.93
664.9423	12.03
664.95507	8.38
664.96783	10.13
664.9806	13.23
664.99336	3.18
665.00612	7.03
665.01887	12.83
665.03163	10.43
665.04438	14.03
665.05713	22.93
665.06987	3.78
665.08262	-7.17
665.09536	-2.47
665.1081	3.58
665.12083	2.78
665.13357	-3.77
665.1463	15.98
665.15903	14.88
665.17175	22.73
665.18448	5.23
665.1972	5.83
665.20992	5.58
665.22263	10.58
665.23535	27.58
665.24806	51.13
665.26077	6.63
665.27348	-2.22
665.28618	14.78
665.29888	12.23
665.31158	0.13
665.32428	19.93
665.33697	13.83
665.34967	5.93
665.36236	3.83
665.37504	5.98
665.38773	7.68
665.40041	13.53
665.41309	10.28
665.42577	8.43
665.43844	-0.97
665.45111	0.43
665.46378	2.18
665.47645	6.13
665.48912	13.28
665.50178	9.48
665.51444	2.83
665.5271	12.73
665.53975	1.33
665.55241	-3.47
665.56506	0.13
665.5777	-0.57
665.59035	6.28
665.60299	10.73
665.61563	13.38
665.62827	16.63
665.64091	5.48
665.65354	-4.72
665.66617	3.23
665.6788	5.88
665.69142	15.88
665.70405	11.48
665.71667	-2.87
665.72929	-1.02
665.7419	5.73
665.75452	-4.92
665.76713	-0.47
665.77974	4.68
665.79234	20.13
665.80495	11.43
665.81755	4.48
665.83015	-3.72
665.84274	9.33
665.85534	1.88
665.86793	3.83
665.88052	6.23
665.8931	11.03
665.90569	1.63
665.91827	1.78
665.93085	-6.27
665.94343	8.68
665.956	11.23
665.96857	-3.07
665.98114	-2.02
665.99371	-13.07
666.00627	-13.87
666.01883	-5.42
666.03139	10.73
666.04395	12.63
666.05651	16.18
666.06906	20.98
666.08161	11.08
666.09415	7.83
666.1067	7.78
666.11924	5.68
666.13178	1.03
666.14432	-1.27
666.15685	-0.72
666.16939	0.53
666.18192	1.48
666.19444	4.93
666.20697	12.03
666.21949	14.33
666.23201	13.18
666.24453	8.18
666.25705	15.28
666.26956	5.78
666.28207	6.63
666.29458	-1.17
666.30708	-0.27
666.31959	2.28
666.33209	12.48
666.34458	7.08
666.35708	9.08
666.36957	12.98
666.38206	13.23
666.39455	10.08
666.40704	5.68
666.41952	9.18
666.432	8.83
666.44448	10.53
666.45696	-2.77
666.46943	0.28
666.4819	6.93
666.49437	12.53
666.50684	14.53
666.5193	0.13
666.53176	-8.37
666.54422	-3.77
666.55668	7.98
666.56913	3.48
666.58158	6.68
666.59403	9.93
666.60648	11.38
666.61892	7.03
666.63136	12.53
666.6438	8.48
666.65624	4.13
666.66867	15.28
666.68111	9.48
666.69354	7.63
666.70596	9.93
666.71839	-0.02
666.73081	6.38
666.74323	0.13
666.75565	15.03
666.76806	11.53
666.78047	-1.12
666.79288	1.63
666.80529	8.98
666.81769	6.38
666.8301	6.28
666.8425	7.93
666.85489	-1.97
666.86729	3.58
666.87968	-2.97
666.89207	-0.17
666.90446	10.53
666.91684	11.73
666.92923	0.83
666.94161	18.88
666.95399	40.83
666.96636	8.43
666.97873	7.63
666.9911	-8.27
667.00347	1.18
667.01584	7.73
667.0282	9.63
667.04056	-6.07
667.05292	1.48
667.06528	6.78
667.07763	-1.77
667.08998	6.13
667.10233	12.98
667.11467	0.58
667.12702	-6.27
667.13936	1.03
667.1517	15.08
667.16403	7.08
667.17637	10.58
667.1887	-3.07
667.20103	-8.32
667.21335	-1.82
667.22568	1.18
667.238	5.78
667.25032	6.48
667.26263	14.93
667.27495	2.33
667.28726	8.83
667.29957	21.63
667.31188	15.68
667.32418	9.33
667.33648	5.78
667.34878	11.28
667.36108	3.63
667.37337	-10.07
667.38566	-2.42
667.39795	8.73
667.41024	4.78
667.42252	18.03
667.43481	13.33
667.44709	4.23
667.45936	1.93
667.47164	10.63
667.48391	11.13
667.49618	-4.47
667.50845	-5.02
667.52071	7.63
667.53297	4.23
667.54523	6.58
667.55749	2.98
667.56975	3.68
667.582	2.63
667.59425	8.13
667.6065	23.28
667.61874	4.98
667.63099	18.73
667.64323	17.33
667.65546	-4.22
667.6677	1.48
667.67993	6.63
667.69216	7.43
667.70439	3.13
667.71662	1.78
667.72884	5.38
667.74106	6.68
667.75328	1.98
667.76549	4.23
667.77771	4.53
667.78992	6.18
667.80213	5.08
667.81433	-2.72
667.82654	8.78
667.83874	10.38
667.85094	-7.32
667.86313	-7.42
667.87533	-7.47
667.88752	-1.67
667.89971	2.03
667.91189	1.58
667.92408	-2.72
667.93626	1.03
667.94844	9.38
667.96061	17.08
667.97279	3.98
667.98496	1.78
667.99713	-2.47
668.0093	2.83
668.02146	12.73
668.03362	11.68
668.04578	5.03
668.05794	-6.77
668.07009	-1.17
668.08224	6.38
668.09439	22.28
668.10654	12.63
668.11868	12.28
668.13083	9.63
668.14297	2.73
668.1551	3.18
668.16724	4.53
668.17937	9.93
668.1915	-2.82
668.20363	2.93
668.21575	5.53
668.22788	-1.42
668.24	7.78
668.25211	17.53
668.26423	18.53
668.27634	2.33
668.28845	1.18
668.30056	-2.47
668.31266	-1.57
668.32477	2.03
668.33687	-6.97
668.34897	-6.87
668.36106	2.73
668.37315	11.38
668.38524	3.03
668.39733	3.28
668.40942	-4.67
668.4215	3.78
668.43358	0.33
668.44566	3.18
668.45774	4.63
668.46981	2.13
668.48188	6.18
668.49395	8.33
668.50602	11.93
668.51808	8.08
668.53014	6.68
668.5422	5.48
668.55425	7.73
668.56631	11.18
668.57836	3.88
668.59041	9.58
668.60246	-1.57
668.6145	-7.12
668.62654	-6.97
668.63858	5.38
668.65062	4.53
668.66265	13.13
668.67468	-0.92
668.68671	4.53
668.69874	21.08
668.71076	6.53
668.72278	3.43
668.7348	1.23
668.74682	1.58
668.75883	3.03
668.77085	-6.42
668.78286	-10.07
668.79486	1.23
668.80687	6.33
668.81887	-0.57
668.83087	8.38
668.84287	-2.57
668.85486	10.43
668.86685	-9.97
668.87884	-4.37
668.89083	8.53
668.90282	11.98
668.9148	3.28
668.92678	0.03
668.93876	2.03
668.95073	3.23
668.9627	4.58
668.97468	3.83
668.98664	9.88
668.99861	12.38
669.01057	9.43
669.02253	9.83
669.03449	15.23
669.04645	3.03
669.0584	3.48
669.07035	3.33
669.0823	3.03
669.09424	-5.27
669.10619	-8.62
669.11813	4.23
669.13007	9.88
669.142	7.88
669.15393	12.58
669.16587	6.48
669.17779	-2.27
669.18972	-4.52
669.20164	-6.32
669.21356	-0.82
669.22548	1.03
669.2374	2.43
669.24931	2.03
669.26123	-4.52
669.27313	5.78
669.28504	12.38
669.29694	3.23
669.30885	5.23
669.32074	6.43
669.33264	12.63
669.34454	1.08
669.35643	-4.42
669.36832	-2.52
669.3802	3.53
669.39209	-4.67
669.40397	2.18
669.41585	-2.27
669.42773	-6.07
669.4396	-9.62
669.45147	-9.52
669.46334	-2.82
669.47521	1.83
669.48707	-8.02
669.49894	-0.97
669.5108	6.98
669.52265	3.08
669.53451	6.38
669.54636	-0.32
669.55821	8.13
669.57006	-2.37
669.5819	-11.32
669.59375	-5.27
669.60559	3.68
669.61742	1.03
669.62926	-2.67
669.64109	-1.22
669.65292	6.63
669.66475	4.73
669.67658	-1.32
669.6884	-1.32
669.70022	2.03
669.71204	14.43
669.72385	5.33
669.73567	3.13
669.74748	5.68
669.75928	2.58
669.77109	7.03
669.78289	6.13
669.79469	5.38
669.80649	2.83
669.81829	-3.37
669.83008	6.98
669.84187	2.98
669.85366	1.13
669.86545	0.93
669.87723	9.23
669.88901	14.48
669.90079	8.58
669.91257	3.98
669.92434	14.28
669.93611	24.48
669.94788	15.93
669.95965	8.18
669.97141	-3.37
669.98317	-0.02
669.99493	9.73
670.00669	6.98
670.01844	7.58
670.0302	10.38
670.04194	3.03
670.05369	11.68
670.06544	-3.77
670.07718	-0.02
670.08892	5.73
670.10065	3.18
670.11239	4.13
670.12412	7.98
670.13585	11.58
670.14758	0.03
670.1593	-1.02
670.17103	8.73
670.18275	22.43
670.19446	3.23
670.20618	10.98
670.21789	6.88
670.2296	4.93
670.24131	-1.37
670.25301	13.48
670.26472	21.23
670.27642	13.13
670.28811	4.73
670.29981	6.13
670.3115	0.73
670.32319	-4.07
670.33488	-6.22
670.34656	-3.17
670.35825	13.38
670.36993	10.28
670.38161	1.43
670.39328	-0.77
670.40496	5.03
670.41663	0.33
670.42829	7.93
670.43996	6.48
670.45162	3.73
670.46328	-3.42
670.47494	-6.77
670.4866	1.03
670.49825	9.13
670.5099	3.08
670.52155	3.83
670.5332	12.23
670.54484	1.18
670.55648	-2.02
670.56812	12.88
670.57976	-1.02
670.59139	-2.12
670.60302	-1.02
670.61465	1.68
670.62628	3.73
670.6379	-0.07
670.64952	3.58
670.66114	-0.97
670.67276	-7.92
670.68438	2.08
670.69599	7.53
670.7076	3.58
670.7192	4.83
670.73081	17.53
670.74241	15.83
670.75401	6.63
670.76561	8.88
670.7772	8.78
670.78879	1.48
670.80038	-0.82
670.81197	-3.32
670.82355	2.63
670.83514	8.78
670.84672	-2.82
670.85829	-4.52
670.86987	-4.97
670.88144	1.63
670.89301	-9.62
670.90458	-9.52
670.91614	-5.32
670.92771	4.48
670.93927	6.88
670.95083	10.58
670.96238	2.18
670.97393	-3.17
670.98548	-2.27
670.99703	-6.82
671.00858	-3.67
671.02012	-1.27
671.03166	-7.57
671.0432	-5.32
671.05473	1.38
671.06627	3.88
671.0778	-2.47
671.08933	-3.97
671.10085	6.53
671.11238	9.23
671.1239	7.38
671.13542	9.13
671.14693	5.13
671.15845	0.78
671.16996	12.13
671.18147	12.48
671.19297	9.13
671.20448	12.48
671.21598	-1.72
671.22748	-1.82
671.23897	0.78
671.25047	-3.67
671.26196	1.28
671.27345	-1.87
671.28493	-0.77
671.29642	-1.62
671.3079	-0.22
671.31938	-1.02
671.33085	-3.12
671.34233	5.93
671.3538	14.38
671.36527	8.08
671.37674	-9.82
671.3882	-9.57
671.39966	-6.27
671.41112	0.13
671.42258	-7.07
671.43404	8.68
671.44549	13.03
671.45694	-0.22
671.46838	7.88
671.47983	10.98
671.49127	1.23
671.50271	12.78
671.51415	6.58
671.52558	6.13
671.53702	6.48
671.54845	13.33
671.55987	3.28
671.5713	3.28
671.58272	5.58
671.59414	9.13
671.60556	29.53
671.61698	17.68
671.62839	4.68
671.6398	7.58
671.65121	2.33
671.66261	-2.82
671.67402	-7.07
671.68542	-1.17
671.69681	-8.92
671.70821	-6.87
671.7196	1.48
671.73099	-2.47
671.74238	0.08
671.75377	2.38
671.76515	2.03
671.77653	0.83
671.78791	3.98
671.79929	14.08
671.81066	12.03
671.82203	16.08
671.8334	-0.92
671.84477	2.98
671.85613	5.18
671.86749	5.58
671.87885	15.63
671.89021	29.58
671.90156	6.53
671.91291	-5.32
671.92426	-8.77
671.93561	-2.32
671.94695	2.18
671.9583	0.43
671.96963	11.18
671.98097	11.03
671.99231	9.63
672.00364	-10.47
672.01497	1.68
672.02629	2.28
672.03762	-1.67
672.04894	-0.62
672.06026	-5.47
672.07158	-8.52
672.08289	-2.87
672.0942	-1.47
672.10551	18.93
672.11682	30.53
672.12813	11.48
672.13943	3.63
672.15073	-3.37
672.16203	-0.67
672.17332	-0.52
672.18461	1.38
672.1959	11.88
672.20719	15.58
672.21848	17.13
672.22976	13.53
672.24104	9.33
672.25232	0.18
672.26359	-0.07
672.27487	-2.67
672.28614	9.48
672.29741	11.48
672.30867	1.43
672.31993	2.98
672.33119	2.18
672.34245	-1.72
672.35371	-9.17
672.36496	-0.92
672.37621	0.73
672.38746	-3.52
672.39871	-2.22
672.40995	-0.72
672.42119	10.33
672.43243	20.93
672.44367	16.38
672.4549	-0.22
672.46613	12.38
672.47736	7.23
672.48859	14.88
672.49981	8.68
672.51103	1.68
672.52225	5.08
672.53347	2.43
672.54468	3.48
672.55589	12.18
672.5671	2.33
672.57831	1.73
672.58951	9.98
672.60072	7.38
672.61191	0.68
672.62311	2.58
672.63431	1.43
672.6455	6.63
672.65669	4.93
672.66787	-0.42
672.67906	-1.97
672.69024	1.08
672.70142	-2.37
672.7126	3.18
672.72377	-6.52
672.73494	-5.47
672.74611	5.63
672.75728	2.98
672.76845	3.58
672.77961	6.43
672.79077	1.28
672.80193	-0.97
672.81308	8.23
672.82423	10.68
672.83539	11.48
672.84653	5.73
672.85768	0.63
672.86882	3.68
672.87996	6.03
672.8911	0.38
672.90223	8.43
672.91337	0.38
672.9245	-4.52
672.93563	-2.42
672.94675	9.43
672.95788	12.43
672.969	-1.72
672.98011	4.63
672.99123	13.83
673.00234	5.98
673.01345	-1.07
673.02456	-9.57
673.03567	-2.27
673.04677	4.53
673.05787	-0.97
673.06897	5.23
673.08007	0.58
673.09116	-0.42
673.10225	-8.22
673.11334	4.18
673.12443	14.48
673.13551	17.73
673.14659	11.98
673.15767	1.43
673.16875	3.33
673.17982	-1.37
673.1909	1.43
673.20196	3.98
673.21303	-0.12
673.2241	4.43
673.23516	10.43
673.24622	4.83
673.25727	7.58
673.26833	6.88
673.27938	12.13
673.29043	7.38
673.30148	16.73
673.31252	7.38
673.32356	6.28
673.3346	2.53
673.34564	4.08
673.35668	0.43
673.36771	-5.22
673.37874	3.43
673.38977	9.13
673.40079	13.88
673.41181	5.38
673.42283	8.63
673.43385	0.38
673.44487	9.88
673.45588	0.83
673.46689	-5.52
673.4779	8.83
673.4889	14.38
673.4999	4.58
673.51091	3.23
673.5219	9.63
673.5329	21.08
673.54389	13.43
673.55488	0.93
673.56587	9.73
673.57686	10.63
673.58784	4.48
673.59882	13.78
673.6098	5.83
673.62077	13.83
673.63175	33.58
673.64272	14.93
673.65369	-3.22
673.66465	1.63
673.67562	0.38
673.68658	10.08
673.69754	-0.92
673.70849	10.18
673.71945	13.73
673.7304	18.88
673.74135	29.68
673.75229	25.53
673.76324	27.98
673.77418	4.88
673.78512	8.13
673.79605	9.08
673.80699	10.48
673.81792	4.93
673.82885	14.53
673.83978	19.18
673.8507	14.18
673.86162	6.28
673.87254	-0.77
673.88346	11.33
673.89437	8.48
673.90529	11.93
673.9162	14.33
673.9271	6.93
673.93801	8.98
673.94891	-1.07
673.95981	1.83
673.97071	4.33
673.9816	5.53
673.99249	6.83
674.00338	10.68
674.01427	3.73
674.02516	0.38
674.03604	-4.37
674.04692	2.08
674.0578	8.33
674.06867	7.88
674.07954	12.28
674.09042	24.73
674.10128	-1.07
674.11215	-8.82
674.12301	3.18
674.13387	3.68
674.14473	-3.22
674.15559	1.88
674.16644	2.78
674.17729	-2.02
674.18814	1.83
674.19898	3.18
674.20983	-3.52
674.22067	-0.77
674.23151	-0.22
674.24234	-3.67
674.25318	5.58
674.26401	19.23
674.27483	12.38
674.28566	-3.97
674.29648	-2.67
674.30731	-3.02
674.31812	0.63
674.32894	1.13
674.33975	9.48
674.35057	5.78
674.36137	5.63
674.37218	13.38
674.38299	-6.32
674.39379	-4.77
674.40459	11.38
674.41538	7.68
674.42618	2.28
674.43697	0.48
674.44776	0.38
674.45854	6.33
674.46933	7.88
674.48011	3.28
674.49089	-1.92
674.50167	-1.72
674.51244	-1.27
674.52321	-5.37
674.53398	-15.12
674.54475	-7.17
674.55552	4.58
674.56628	1.08
674.57704	-2.42
674.5878	3.78
674.59855	3.18
674.6093	6.88
674.62005	9.28
674.6308	9.03
674.64155	3.03
674.65229	2.33
674.66303	5.83
674.67377	14.48
674.6845	15.68
674.69523	20.43
674.70596	9.78
674.71669	1.08
674.72742	-5.92
674.73814	-5.77
674.74886	-0.37
674.75958	1.33
674.77029	4.73
674.78101	-2.12
674.79172	7.83
674.80243	10.13
674.81313	6.88
674.82384	15.13
674.83454	5.83
674.84524	-2.37
674.85593	1.98
674.86663	9.13
674.87732	-3.42
674.888	-1.02
674.89869	4.43
674.90937	6.38
674.92006	11.13
674.93073	9.43
674.94141	0.23
674.95208	4.33
674.96276	18.28
674.97343	13.88
674.98409	12.33
674.99476	12.43
675.00542	-2.17
675.01608	1.73
675.02673	0.23
675.03739	1.03
675.04804	5.63
675.05869	14.93
675.06934	16.63
675.07998	20.13
675.09062	-4.82
675.10126	-8.17
675.1119	1.38
675.12253	15.68
675.13317	10.03
675.1438	11.53
675.15442	1.68
675.16505	-0.87
675.17567	9.93
675.18629	19.93
675.19691	14.68
675.20752	8.18
675.21813	4.73
675.22874	5.48
675.23935	13.23
675.24996	8.08
675.26056	12.63
675.27116	7.38
675.28176	4.33
675.29235	4.78
675.30295	6.13
675.31354	5.83
675.32412	2.78
675.33471	-9.12
675.34529	-0.37
675.35587	-0.62
675.36645	-10.32
675.37703	-9.57
675.3876	-1.87
675.39817	3.98
675.40874	4.83
675.41931	9.28
675.42987	17.38
675.44043	9.03
675.45099	2.88
675.46154	12.33
675.4721	10.53
675.48265	14.13
675.4932	17.23
675.50374	9.13
675.51429	-0.22
675.52483	0.93
675.53537	-1.77
675.5459	4.73
675.55644	11.98
675.56697	5.63
675.5775	2.48
675.58803	0.43
675.59855	7.63
675.60907	0.68
675.61959	-1.12
675.63011	1.23
675.64062	0.43
675.65113	3.88
675.66164	11.73
675.67215	-1.72
675.68265	2.48
675.69316	5.13
675.70366	2.53
675.71415	14.78
675.72465	21.13
675.73514	14.03
675.74563	18.93
675.75612	3.58
675.7666	-0.47
675.77708	5.33
675.78756	7.43
675.79804	4.03
675.80852	15.63
675.81899	24.58
675.82946	9.28
675.83993	7.98
675.85039	11.43
675.86085	9.73
675.87131	14.53
675.88177	11.08
675.89223	11.08
675.90268	13.53
675.91313	9.43
675.92358	5.73
675.93402	-0.82
675.94447	6.83
675.95491	13.63
675.96535	2.13
675.97578	11.63
675.98622	18.38
675.99665	-2.07
676.00707	7.83
676.0175	15.28
676.02792	7.03
676.03835	5.53
676.04876	7.03
676.05918	1.18
676.06959	4.78
676.08	20.93
676.09041	11.58
676.10082	-2.27
676.11122	1.78
676.12162	50.58
676.13202	98.48
676.14242	20.83
676.15281	2.63
676.16321	-3.47
676.17359	0.58
676.18398	-5.97
676.19437	6.78
676.20475	0.43
676.21513	-2.57
676.2255	4.13
676.23588	15.48
676.24625	11.38
676.25662	1.68
676.26699	-7.17
676.27735	1.38
676.28771	18.38
676.29807	10.03
676.30843	7.03
676.31878	0.98
676.32914	8.23
676.33949	11.23
676.34983	12.08
676.36018	1.83
676.37052	-1.32
676.38086	-2.57
676.3912	-1.92
676.40153	4.33
676.41187	13.13
676.4222	5.08
676.43252	8.28
676.44285	20.53
676.45317	9.43
676.46349	-3.27
676.47381	5.73
676.48413	12.33
676.49444	9.28
676.50475	11.33
676.51506	7.18
676.52536	12.98
676.53567	4.83
676.54597	9.98
676.55626	11.93
676.56656	3.68
676.57685	2.58
676.58714	9.63
676.59743	7.68
676.60772	5.58
676.618	2.18
676.62828	2.98
676.63856	-5.72
676.64884	-1.62
676.65911	-4.82
676.66938	-6.12
676.67965	6.48
676.68992	18.23
676.70018	12.43
676.71044	8.33
676.7207	28.58
676.73096	18.28
676.74121	11.98
676.75146	12.88
676.76171	17.48
676.77196	5.08
676.7822	0.08
676.79245	1.08
676.80269	9.23
676.81292	-5.52
676.82316	-4.17
676.83339	9.88
676.84362	23.03
676.85385	-0.02
676.86407	6.03
676.87429	2.33
676.88451	11.28
676.89473	10.53
676.90494	-9.47
676.91516	-4.77
676.92537	-3.82
676.93557	7.13
676.94578	2.63
676.95598	-2.67
676.96618	-3.47
676.97638	0.38
676.98657	-1.02
676.99677	-3.72
677.00696	8.03
677.01714	17.13
677.02733	13.08
677.03751	8.38
677.04769	4.33
677.05787	2.88
677.06805	6.43
677.07822	5.53
677.08839	9.58
677.09856	1.18
677.10872	0.98
677.11889	4.13
677.12905	12.63
677.13921	8.88
677.14936	0.43
677.15951	-1.87
677.16967	4.18
677.17981	6.98
677.18996	7.28
677.2001	-3.22
677.21025	-9.92
677.22038	1.38
677.23052	3.68
677.24065	-0.47
677.25078	4.18
677.26091	10.13
677.27104	8.78
677.28116	0.13
677.29129	5.28
677.3014	3.08
677.31152	25.33
677.32164	61.53
677.33175	5.08
677.34186	2.03
677.35196	6.13
677.36207	14.23
677.37217	15.48
677.38227	11.23
677.39236	10.33
677.40246	2.43
677.41255	-3.57
677.42264	1.63
677.43273	2.93
677.44281	6.48
677.45289	12.88
677.46297	-3.72
677.47305	-3.87
677.48313	-1.82
677.4932	3.18
677.50327	-0.17
677.51334	4.33
677.5234	4.28
677.53346	12.13
677.54352	8.68
677.55358	4.98
677.56364	11.78
677.57369	21.18
677.58374	9.28
677.59379	-7.57
677.60383	-6.67
677.61388	3.13
677.62392	6.23
677.63395	5.13
677.64399	13.18
677.65402	17.33
677.66405	8.88
677.67408	0.83
677.68411	1.73
677.69413	5.83
677.70415	5.38
677.71417	7.48
677.72419	-3.62
677.7342	-0.62
677.74421	-5.47
677.75422	-5.07
677.76422	-0.42
677.77423	6.13
677.78423	12.68
677.79423	5.33
677.80422	10.13
677.81422	4.88
677.82421	-4.12
677.8342	0.43
677.84418	0.28
677.85417	8.28
677.86415	15.63
677.87413	6.73
677.88411	-0.22
677.89408	7.93
677.90405	9.88
677.91402	9.68
677.92399	8.98
677.93395	20.23
677.94391	13.23
677.95387	1.68
677.96383	2.83
677.97378	6.73
677.98374	4.53
677.99369	6.73
678.00363	13.33
678.01358	1.43
678.02352	1.73
678.03346	7.58
678.0434	-1.07
678.05333	-1.72
678.06326	1.13
678.07319	2.88
678.08312	1.63
678.09305	11.78
678.10297	3.18
678.11289	-2.72
678.12281	5.93
678.13272	2.58
678.14264	0.83
678.15255	5.78
678.16245	4.53
678.17236	0.28
678.18226	0.48
678.19216	-0.27
678.20206	-7.37
678.21196	-2.32
678.22185	7.28
678.23174	10.68
678.24163	10.48
678.25151	11.13
678.2614	20.23
678.27128	19.88
678.28116	8.18
678.29103	11.58
678.30091	7.18
678.31078	-3.87
678.32065	-1.02
678.33051	6.73
678.34037	4.03
678.35024	-6.37
678.36009	0.33
678.36995	3.68
678.37981	3.73
678.38966	-6.42
678.39951	-2.62
678.40935	0.13
678.4192	-0.22
678.42904	-4.32
678.43888	4.78
678.44871	0.98
678.45855	7.73
678.46838	10.58
678.47821	-1.82
678.48804	-0.22
678.49786	19.03
678.50768	23.23
678.5175	12.18
678.52732	11.03
678.53713	8.88
678.54694	7.18
678.55675	-4.62
678.56656	-4.42
678.57637	-1.12
678.58617	1.38
678.59597	13.03
678.60577	7.13
678.61556	-6.17
678.62535	5.03
678.63514	17.08
678.64493	12.28
678.65472	3.63
678.6645	14.98
678.67428	9.13
678.68406	8.98
678.69383	2.48
678.7036	1.33
678.71337	3.48
678.72314	6.83
678.73291	6.68
678.74267	-0.67
678.75243	1.93
678.76219	1.33
678.77195	6.08
678.7817	0.18
678.79145	-0.37
678.8012	3.13
678.81094	-1.92
678.82069	-3.27
678.83043	36.93
678.84017	71.73
678.8499	3.43
678.85964	3.63
678.86937	5.93
678.87909	13.93
678.88882	10.78
678.89854	0.83
678.90827	2.38
678.91798	0.48
678.9277	0.43
678.93742	-5.47
678.94713	2.43
678.95684	2.58
678.96654	9.38
678.97625	7.43
678.98595	5.33
678.99565	-4.57
679.00534	-8.47
679.01504	-3.77
679.02473	-4.47
679.03442	-2.77
679.04411	10.28
679.05379	6.38
679.06347	-1.92
679.07315	1.28
679.08283	2.48
679.0925	-0.32
679.10218	6.03
679.11185	-2.37
679.12151	-3.92
679.13118	4.03
679.14084	-1.72
679.1505	-1.52
679.16016	-5.07
679.16981	-5.12
679.17946	7.78
679.18911	6.88
679.19876	-6.27
679.20841	10.13
679.21805	15.03
679.22769	5.98
679.23733	10.48
679.24696	17.08
679.2566	6.63
679.26623	6.68
679.27585	7.53
679.28548	-0.77
679.2951	6.38
679.30472	-2.12
679.31434	-5.02
679.32396	-1.97
679.33357	-2.47
679.34318	19.33
679.35279	26.23
679.3624	-0.17
679.372	4.98
679.3816	9.78
679.3912	-1.47
679.40079	21.08
679.41039	13.13
679.41998	2.08
679.42957	1.33
679.43915	-3.07
679.44874	3.48
679.45832	16.08
679.4679	6.33
679.47747	-3.87
679.48705	-4.92
679.49662	7.28
679.50619	9.78
679.51575	0.43
679.52532	2.68
679.53488	12.83
679.54444	6.53
679.554	2.38
679.56355	3.38
679.5731	9.93
679.58265	3.78
679.5922	-0.27
679.60174	13.08
679.61129	13.78
679.62083	2.03
679.63036	-7.32
679.6399	-1.92
679.64943	10.88
679.65896	5.48
679.66849	-0.32
679.67801	4.23
679.68753	10.28
679.69705	16.93
679.70657	24.38
679.71609	18.83
679.7256	17.73
679.73511	9.13
679.74462	-2.72
679.75412	-3.57
679.76362	10.28
679.77312	13.58
679.78262	2.83
679.79212	4.38
679.80161	4.88
679.8111	-2.17
679.82059	0.98
679.83007	10.38
679.83956	10.68
679.84904	4.78
679.85852	9.13
679.86799	-2.12
679.87747	1.78
679.88694	-0.92
679.8964	0.18
679.90587	-2.97
679.91533	9.38
679.92479	5.08
679.93425	0.53
679.94371	12.58
679.95316	12.98
679.96261	10.23
679.97206	2.88
679.98151	-0.32
679.99095	-1.22
680.00039	-2.12
680.00983	-0.27
680.01927	8.18
680.0287	4.43
680.03814	16.53
680.04756	0.18
680.05699	-0.07
680.06641	5.23
680.07584	-1.17
680.08526	-5.67
680.09467	0.53
680.10409	-3.92
680.1135	-5.67
680.12291	0.23
680.13232	6.38
680.14172	14.98
680.15112	5.28
680.16052	-0.52
680.16992	5.73
680.17931	8.23
680.18871	6.98
680.1981	-4.77
680.20748	-2.37
680.21687	-1.77
