Data from HR4C25001_14-15-25-460.txt Node
Date: Mon Jun 15 14:15:25 CDT 2026
User: jam28248
Spectrometer: HR4C2500
Trigger mode: 4
Integration Time (sec): 7.500000E-2
Scans to average: 20
Electric dark correction enabled: true
Nonlinearity correction enabled: false
Boxcar width: 0
XAxis mode: Wavelengths
Number of Pixels in Spectrum: 3648
>>>>>Begin Spectral Data<<<<<
629.66646	-14.75
629.6848	-14.75
629.70313	-14.75
629.72147	-52.15
629.7398	-36.45
629.75812	-1.85
629.77645	0.35
629.79477	8.1
629.81309	-3.45
629.83141	-7.05
629.84972	5.55
629.86803	3.75
629.88634	11.85
629.90465	-10.65
629.92295	-10.5
629.94126	-1.5
629.95956	2.4
629.97785	3.05
629.99615	-0.2
630.01444	17.4
630.03273	14.3
630.05102	11.35
630.0693	5.85
630.08759	13.05
630.10587	1
630.12415	0.15
630.14242	7.9
630.16069	-6.8
630.17896	-5.75
630.19723	6.3
630.2155	20.15
630.23376	65.55
630.25202	23.3
630.27028	19.3
630.28854	13.5
630.30679	4.85
630.32504	4.65
630.34329	11.35
630.36153	11.5
630.37978	20.15
630.39802	10.95
630.41626	4.75
630.43449	-0.5
630.45273	1.6
630.47096	10.55
630.48919	8.5
630.50741	15.8
630.52564	5.05
630.54386	11.85
630.56208	20.25
630.58029	5.25
630.59851	7.15
630.61672	9.05
630.63493	15.15
630.65313	3.9
630.67134	7.6
630.68954	2.85
630.70774	12.65
630.72594	14.4
630.74413	3.4
630.76232	-2.05
630.78051	-2.35
630.7987	5.95
630.81688	10.2
630.83507	15.45
630.85325	14.3
630.87142	5.85
630.8896	5.05
630.90777	-1.25
630.92594	-9.55
630.94411	12.9
630.96227	24.35
630.98043	38.85
630.99859	13.35
631.01675	9.05
631.03491	1.75
631.05306	-2.55
631.07121	15.25
631.08936	11.8
631.1075	0.85
631.12564	9.9
631.14379	12
631.16192	14.1
631.18006	9.25
631.19819	7.45
631.21632	4
631.23445	-4
631.25258	3.2
631.2707	8.15
631.28882	8.75
631.30694	10.9
631.32505	6.45
631.34317	12
631.36128	6.1
631.37939	9.05
631.39749	5.25
631.4156	4.35
631.4337	-3.1
631.4518	6.2
631.46989	-4.45
631.48799	-1.6
631.50608	2.8
631.52417	-4.25
631.54225	5.95
631.56034	4.95
631.57842	4.35
631.5965	-0.2
631.61457	-13.45
631.63265	-3.8
631.65072	6.2
631.66879	0.35
631.68685	14.6
631.70492	23.55
631.72298	16.3
631.74104	1.8
631.7591	-1.45
631.77715	1.4
631.7952	11.25
631.81325	11.25
631.8313	-0.35
631.84934	15.7
631.86739	16.85
631.88543	7.7
631.90346	8.1
631.9215	2.4
631.93953	8.3
631.95756	4.75
631.97559	9.05
631.99361	-2.35
632.01163	-2.15
632.02965	5.8
632.04767	11.45
632.06569	16.25
632.0837	7.8
632.10171	-3.4
632.11972	-6.1
632.13772	4.9
632.15573	16.85
632.17373	0.85
632.19172	-3.05
632.20972	-0.85
632.22771	-1.7
632.2457	3
632.26369	4.25
632.28168	11.2
632.29966	1.65
632.31764	8.75
632.33562	4.4
632.35359	5.4
632.37157	6.25
632.38954	8.2
632.40751	2.6
632.42547	-6.5
632.44344	14.05
632.4614	6.7
632.47936	0.3
632.49731	1.15
632.51527	6.55
632.53322	11.45
632.55117	9.65
632.56911	6.45
632.58706	-0.35
632.605	-0.7
632.62294	4.8
632.64087	7.85
632.65881	-10.1
632.67674	-2.1
632.69467	-0.9
632.7126	4.05
632.73052	8.15
632.74844	4.9
632.76636	6.75
632.78428	16.9
632.80219	26.75
632.8201	24.65
632.83801	3.7
632.85592	3
632.87383	13.8
632.89173	4.8
632.90963	0.65
632.92753	9
632.94542	7.95
632.96331	10.65
632.9812	8.25
632.99909	3
633.01697	-1.65
633.03486	2.55
633.05274	1.1
633.07061	3.7
633.08849	2.25
633.10636	10.85
633.12423	19.45
633.1421	11.1
633.15997	20.7
633.17783	6.6
633.19569	13.45
633.21355	15.25
633.2314	15.1
633.24926	-3.55
633.26711	-0
633.28495	3.7
633.3028	-2.75
633.32064	1.35
633.33848	11.35
633.35632	23.35
633.37416	18.65
633.39199	8.45
633.40982	-1.6
633.42765	3.85
633.44548	3.25
633.4633	-4.15
633.48112	-4.7
633.49894	-3.35
633.51676	5.4
633.53457	-0.95
633.55238	5.65
633.57019	1.7
633.588	-3.3
633.6058	-6.05
633.6236	6.75
633.6414	10.4
633.6592	-1.4
633.67699	-4.25
633.69478	1.95
633.71257	13.95
633.73036	14.35
633.74815	2.2
633.76593	2
633.78371	5.05
633.80148	0.85
633.81926	0.8
633.83703	-0.95
633.8548	-14.3
633.87257	-9.05
633.89033	-1.55
633.90809	8.25
633.92585	5.5
633.94361	-2.35
633.96137	-0.6
633.97912	6.35
633.99687	-14.5
634.01462	-0.1
634.03236	11.5
634.0501	14.5
634.06784	-4.4
634.08558	12.15
634.10332	13.35
634.12105	3.45
634.13878	13.45
634.15651	15.1
634.17423	8.45
634.19196	-0.8
634.20968	-0.4
634.22739	9.65
634.24511	15.25
634.26282	13.45
634.28053	20.65
634.29824	8.15
634.31595	6.2
634.33365	4.25
634.35135	-3.6
634.36905	-4.7
634.38675	6.8
634.40444	8
634.42213	-0.8
634.43982	-0.85
634.4575	-5.2
634.47519	11.2
634.49287	19.2
634.51055	1.55
634.52822	4.25
634.5459	6.55
634.56357	3.8
634.58124	-11.25
634.59891	2.4
634.61657	7.85
634.63423	14.35
634.65189	13.75
634.66955	0.9
634.6872	11.3
634.70485	8.15
634.7225	5.65
634.74015	13.55
634.75779	3.9
634.77544	-0.25
634.79307	-1.2
634.81071	11.8
634.82835	6.85
634.84598	3.3
634.86361	-1.8
634.88123	10.15
634.89886	5.85
634.91648	3.8
634.9341	-0.65
634.95172	9.05
634.96933	5.6
634.98695	15.75
635.00456	1.35
635.02216	7.2
635.03977	12.4
635.05737	4.2
635.07497	3.5
635.09257	7.85
635.11016	10.3
635.12776	10.05
635.14535	0.9
635.16294	11.3
635.18052	5.45
635.1981	8.4
635.21569	9.25
635.23326	1.5
635.25084	10.5
635.26841	4.5
635.28598	4.8
635.30355	0.7
635.32112	-5.35
635.33868	-11.8
635.35624	-4.85
635.3738	0.9
635.39136	-5.95
635.40891	-5.95
635.42646	3.65
635.44401	2.8
635.46155	-0.7
635.4791	1.95
635.49664	4.45
635.51418	12.85
635.53171	4
635.54925	2.8
635.56678	0.35
635.58431	6.05
635.60184	19.5
635.61936	20.75
635.63688	1.8
635.6544	6.25
635.67192	0.6
635.68943	3.6
635.70694	0.75
635.72445	3.2
635.74196	-3.7
635.75946	-4.25
635.77697	-3.25
635.79447	1.3
635.81196	11.6
635.82946	1.65
635.84695	-6.15
635.86444	8.05
635.88193	8.75
635.89941	11.7
635.91689	5.45
635.93437	1
635.95185	1.3
635.96933	-1.75
635.9868	11.35
636.00427	32.05
636.02174	9.85
636.0392	-0
636.05666	17.65
636.07412	8.4
636.09158	5.4
636.10904	-1.9
636.12649	7.95
636.14394	3.6
636.16139	14.05
636.17883	1.1
636.19628	1.1
636.21372	-7.7
636.23116	-0.9
636.24859	-4.05
636.26602	0.95
636.28345	7.85
636.30088	6.4
636.31831	3.1
636.33573	-0.55
636.35315	4.8
636.37057	7.5
636.38799	1.6
636.4054	10.6
636.42281	11.15
636.44022	6.4
636.45763	-3.4
636.47503	-4.55
636.49243	-6.5
636.50983	-6.85
636.52723	-2.3
636.54462	3.6
636.56201	3.35
636.5794	-2.5
636.59679	-4.1
636.61417	3.3
636.63155	-1.45
636.64893	20.15
636.66631	17.25
636.68368	1.05
636.70106	-5.35
636.71843	-9.75
636.73579	-4.9
636.75316	4.4
636.77052	7.9
636.78788	8.55
636.80524	5.1
636.82259	-6.1
636.83994	-5.6
636.85729	-6.4
636.87464	-8.8
636.89198	-7.3
636.90933	12.3
636.92667	7.9
636.944	0.3
636.96134	-5.1
636.97867	-1
636.996	1.7
637.01333	-0.15
637.03066	-1.1
637.04798	-9.9
637.0653	3.4
637.08262	3.15
637.09993	-2.8
637.11724	-7.65
637.13455	5.85
637.15186	12.55
637.16917	8.5
637.18647	-0.8
637.20377	8.8
637.22107	3.5
637.23837	4.45
637.25566	21.95
637.27295	0.8
637.29024	6.1
637.30752	-2.45
637.32481	-1.1
637.34209	5.6
637.35937	16.4
637.37664	8.7
637.39392	7
637.41119	2
637.42846	6.25
637.44572	1.15
637.46299	5.2
637.48025	21.3
637.49751	8.9
637.51476	1.1
637.53202	11.75
637.54927	-2
637.56652	-0.05
637.58376	3.1
637.60101	-2.75
637.61825	6.5
637.63549	6.05
637.65273	2.6
637.66996	3.25
637.68719	7.05
637.70442	3.55
637.72165	3.2
637.73887	7.5
637.7561	15.35
637.77332	8.3
637.79053	2.8
637.80775	7.6
637.82496	2.3
637.84217	7.6
637.85938	4.05
637.87658	9.15
637.89378	3.2
637.91098	-1.85
637.92818	-3.8
637.94538	4.6
637.96257	12.55
637.97976	7.55
637.99695	3.7
638.01413	-6.2
638.03132	-2.55
638.0485	2.9
638.06567	-11.7
638.08285	1.95
638.10002	3.75
638.11719	1.8
638.13436	-0.85
638.15153	0.65
638.16869	-8.4
638.18585	-5.75
638.20301	-9.6
638.22016	-12.2
638.23732	-13.7
638.25447	-5.55
638.27162	0.2
638.28876	-3.9
638.30591	-4.75
638.32305	6.15
638.34019	11
638.35732	13.1
638.37446	13.3
638.39159	-1.7
638.40872	-3.85
638.42584	0.15
638.44297	-0.5
638.46009	-4.3
638.47721	1.8
638.49432	15.35
638.51144	10.75
638.52855	5.25
638.54566	-7.45
638.56276	0.85
638.57987	3.2
638.59697	3.75
638.61407	-0.15
638.63117	1.25
638.64826	2.85
638.66535	1.45
638.68244	0.65
638.69953	2
638.71661	8.35
638.7337	2.8
638.75078	3.1
638.76785	3.25
638.78493	1.25
638.802	-4.95
638.81907	1.35
638.83614	4.45
638.8532	11.9
638.87026	-1.1
638.88732	-9.35
638.90438	-1.5
638.92144	7.5
638.93849	10
638.95554	7.65
638.97259	1.35
638.98963	6.3
639.00668	8.75
639.02372	6.5
639.04075	11.15
639.05779	8.8
639.07482	7.6
639.09185	12.2
639.10888	-9.6
639.12591	-14.75
639.14293	-6.5
639.15995	1.5
639.17697	20.7
639.19398	23.95
639.211	24.5
639.22801	17.6
639.24502	-0.3
639.26202	-0.35
639.27903	-2.1
639.29603	2.85
639.31303	11.35
639.33002	-1.55
639.34702	5.45
639.36401	5.9
639.381	1.8
639.39798	5.05
639.41497	7.8
639.43195	10.95
639.44893	-1.9
639.4659	5.5
639.48288	9.6
639.49985	16
639.51682	4.95
639.53379	-8.45
639.55075	-10.75
639.56771	-17.3
639.58467	-7.7
639.60163	3.4
639.61858	0.55
639.63553	4.65
639.65248	5.3
639.66943	-4.3
639.68638	-2.5
639.70332	6.6
639.72026	11.05
639.73719	4.9
639.75413	12.7
639.77106	22.55
639.78799	31.4
639.80492	21.3
639.82184	3.4
639.83877	1.45
639.85569	6
639.8726	3.2
639.88952	9.6
639.90643	-0.75
639.92334	3.3
639.94025	3.95
639.95716	8.8
639.97406	2.65
639.99096	8.8
640.00786	4.45
640.02475	4.1
640.04165	-0.45
640.05854	1.05
640.07542	-1.7
640.09231	8.6
640.10919	5.25
640.12607	9.15
640.14295	-4.95
640.15983	-2.5
640.1767	2.05
640.19357	-4.4
640.21044	-0.95
640.22731	8.4
640.24417	11.05
640.26103	13.1
640.27789	14.85
640.29475	2
640.3116	-9.25
640.32845	-1.6
640.3453	5.45
640.36215	-1.85
640.37899	4.15
640.39583	19.1
640.41267	22.65
640.42951	1.1
640.44634	-8.4
640.46317	3.65
640.48	-5.15
640.49683	-8.25
640.51365	-4.7
640.53048	1.85
640.5473	4.55
640.56411	4.15
640.58093	11.75
640.59774	14.15
640.61455	0.5
640.63136	1.15
640.64816	-0.2
640.66496	0.3
640.68176	12.05
640.69856	-6.45
640.71535	0.6
640.73215	-0.55
640.74894	-2.85
640.76572	13.25
640.78251	11.6
640.79929	4.7
640.81607	5.15
640.83285	4.85
640.84963	7.25
640.8664	13.3
640.88317	23.95
640.89994	5.05
640.9167	2.35
640.93346	-4
640.95022	-3.7
640.96698	1.5
640.98374	-0.85
641.00049	-6.6
641.01724	-3.95
641.03399	-10.25
641.05074	-8
641.06748	-5.4
641.08422	7.75
641.10096	2.55
641.11769	9.3
641.13443	6.45
641.15116	1.65
641.16789	-3.15
641.18461	-5.75
641.20134	11.95
641.21806	12.7
641.23478	-0.3
641.25149	1.05
641.26821	7.55
641.28492	3.4
641.30163	2.45
641.31833	-7.5
641.33504	0.95
641.35174	1.2
641.36844	9.05
641.38514	10.35
641.40183	3.1
641.41852	4.4
641.43521	8.6
641.4519	27.5
641.46858	13.4
641.48526	-0.45
641.50194	2.9
641.51862	-0.05
641.53529	1.25
641.55197	10.2
641.56864	16.65
641.5853	3
641.60197	4.1
641.61863	6.55
641.63529	-3.95
641.65195	-3.35
641.6686	4.55
641.68526	7.85
641.70191	12.8
641.71855	18
641.7352	14
641.75184	2.65
641.76848	0.8
641.78512	-1.5
641.80175	1.6
641.81839	15.5
641.83502	16.6
641.85164	12.55
641.86827	13.8
641.88489	8.5
641.90151	-1.8
641.91813	3.4
641.93475	8.2
641.95136	6.65
641.96797	-2.6
641.98458	-9.9
642.00119	2.85
642.01779	6.75
642.03439	6.3
642.05099	2.15
642.06758	-3.7
642.08418	0.8
642.10077	4.65
642.11736	10.7
642.13394	5.05
642.15053	5.65
642.16711	-0.05
642.18369	-2.55
642.20026	8.25
642.21684	12.85
642.23341	15.95
642.24998	11.9
642.26654	17.15
642.28311	9.55
642.29967	0.15
642.31623	-3.95
642.33279	4.6
642.34934	1.55
642.36589	-9.75
642.38244	-13.2
642.39899	48.8
642.41553	122.75
642.43207	17.8
642.44861	-11.55
642.46515	0.35
642.48169	4.7
642.49822	1.05
642.51475	2.4
642.53127	-5.4
642.5478	2.5
642.56432	10.6
642.58084	8.35
642.59736	2.15
642.61387	3.55
642.63039	9.75
642.6469	9.85
642.6634	19.65
642.67991	4.7
642.69641	4.65
642.71291	-0
642.72941	13.65
642.74591	16.8
642.7624	3.75
642.77889	1.95
642.79538	-2.15
642.81186	-6.9
642.82834	-9.95
642.84483	-6.7
642.8613	0.15
642.87778	-5.95
642.89425	8.75
642.91072	34.05
642.92719	-2.35
642.94366	2.65
642.96012	15.6
642.97658	2.4
642.99304	5.4
643.0095	4.4
643.02595	-2.55
643.0424	-0.2
643.05885	10.15
643.0753	-3.4
643.09174	-6.75
643.10818	-5
643.12462	-6.2
643.14106	-2.3
643.15749	-5.15
643.17392	2.3
643.19035	22.4
643.20678	18
643.2232	4.3
643.23962	11.55
643.25604	6.3
643.27246	-2.05
643.28887	2.05
643.30528	7.6
643.32169	11.3
643.3381	4.05
643.35451	4.5
643.37091	11.25
643.38731	7.95
643.4037	-2.3
643.4201	-1.2
643.43649	10.65
643.45288	21.95
643.46927	8
643.48565	-2.05
643.50204	9.25
643.51842	9.2
643.53479	-3.3
643.55117	5.8
643.56754	5.5
643.58391	3.6
643.60028	1.1
643.61664	5.3
643.63301	9.45
643.64937	10.15
643.66572	7.25
643.68208	-0.7
643.69843	1.85
643.71478	-1.8
643.73113	-2.1
643.74748	-1.6
643.76382	4.25
643.78016	-3.1
643.7965	7.25
643.81283	8.7
643.82917	10.6
643.8455	-0.55
643.86183	14.3
643.87815	17.85
643.89448	12.15
643.9108	11.45
643.92712	8.1
643.94343	9.7
643.95974	-4.55
643.97606	-6.25
643.99236	4.95
644.00867	14.25
644.02497	3.65
644.04128	-0.85
644.05758	5.55
644.07387	9.85
644.09017	5.4
644.10646	9.55
644.12275	3.15
644.13903	0.1
644.15532	3.15
644.1716	2.05
644.18788	21.25
644.20415	8.35
644.22043	5.4
644.2367	10.3
644.25297	3
644.26924	10.3
644.2855	10.55
644.30176	7.4
644.31802	2.8
644.33428	13.4
644.35054	19.35
644.36679	0.9
644.38304	4.85
644.39928	10
644.41553	12.6
644.43177	0.15
644.44801	-6.95
644.46425	-2.65
644.48048	3.1
644.49672	3.65
644.51295	7.15
644.52917	3.35
644.5454	13.55
644.56162	5.05
644.57784	10.6
644.59406	7
644.61028	6.1
644.62649	1.75
644.6427	3
644.65891	-3.65
644.67511	-9.5
644.69132	5.2
644.70752	11.8
644.72372	13.6
644.73991	6.5
644.7561	11.6
644.7723	19.35
644.78848	27.7
644.80467	22.4
644.82085	8.9
644.83703	12.15
644.85321	13.9
644.86939	12.4
644.88556	10.6
644.90173	16.55
644.9179	25
644.93407	26.65
644.95023	36.4
644.96639	20.55
644.98255	14.65
644.99871	5.4
645.01486	1.65
645.03102	11.05
645.04716	13.85
645.06331	12.2
645.07946	41.4
645.0956	74
645.11174	13.55
645.12787	15.65
645.14401	7.65
645.16014	17.55
645.17627	9.85
645.1924	10.25
645.20852	19.25
645.22464	12.05
645.24076	24.1
645.25688	31.95
645.27299	18
645.28911	13.95
645.30522	3.6
645.32132	6.95
645.33743	12.25
645.35353	12.45
645.36963	3.25
645.38573	6
645.40182	10
645.41792	5.6
645.43401	-0.15
645.45009	2.7
645.46618	9.5
645.48226	2.95
645.49834	2.1
645.51442	-6.65
645.5305	-3.1
645.54657	2.85
645.56264	4.65
645.57871	2.5
645.59477	5.95
645.61084	2.55
645.6269	8.85
645.64296	16.15
645.65901	12
645.67507	10.35
645.69112	8.1
645.70716	1.8
645.72321	-0.45
645.73925	7.3
645.7553	6.7
645.77133	-4.9
645.78737	4.4
645.8034	12.9
645.81944	22.55
645.83546	5.75
645.85149	22.2
645.86751	11.2
645.88354	-3.25
645.89955	0.65
645.91557	4
645.93159	-2.8
645.9476	2.5
645.96361	6.45
645.97961	6.9
645.99562	9.75
646.01162	11.8
646.02762	6.8
646.04361	4.75
646.05961	-1.75
646.0756	-1.65
646.09159	9.8
646.10758	3.2
646.12356	9.8
646.13954	12.95
646.15552	7.15
646.1715	17.55
646.18748	10.75
646.20345	4.15
646.21942	-1.3
646.23539	16.7
646.25135	22.4
646.26731	4.5
646.28327	12.95
646.29923	4.05
646.31519	18.75
646.33114	24.8
646.34709	20.2
646.36304	8.85
646.37898	-3.05
646.39493	-8.6
646.41087	2.1
646.4268	0.1
646.44274	-2.25
646.45867	-1.15
646.4746	12.95
646.49053	7.35
646.50646	2.8
646.52238	-7.7
646.5383	-7.7
646.55422	-4.6
646.57014	2.4
646.58605	3.7
646.60196	9.2
646.61787	3.15
646.63377	3.25
646.64968	8.6
646.66558	-1.5
646.68148	-6.65
646.69737	5.3
646.71327	2.95
646.72916	-0.7
646.74505	3.05
646.76093	13.7
646.77682	12.3
646.7927	3.85
646.80858	5.6
646.82446	-6.05
646.84033	-1.65
646.8562	-3.9
646.87207	-0.25
646.88794	9.35
646.9038	-2.5
646.91966	3.55
646.93552	8.55
646.95138	-0.75
646.96723	6.25
646.98309	13.45
646.99894	6.05
647.01478	7.55
647.03063	18.1
647.04647	-0.85
647.06231	-6
647.07815	-7.45
647.09398	-1.9
647.10981	0.2
647.12564	-5.2
647.14147	3.35
647.1573	18.5
647.17312	8.4
647.18894	0.2
647.20476	-10.65
647.22057	-12.85
647.23638	-2.8
647.25219	1.5
647.268	-2.85
647.28381	-3.25
647.29961	12
647.31541	6.3
647.33121	2.35
647.34701	9.75
647.3628	5.55
647.37859	8.25
647.39438	5.65
647.41016	2.35
647.42595	0.95
647.44173	1.5
647.45751	3.55
647.47328	5.15
647.48905	5.2
647.50483	14.2
647.52059	9.75
647.53636	2.5
647.55212	-6.35
647.56789	8.75
647.58364	37.55
647.5994	7.1
647.61515	1
647.63091	6.15
647.64665	3.25
647.6624	0.05
647.67814	-2.75
647.69389	-5.55
647.70963	-3.9
647.72536	-12.15
647.7411	-9.05
647.75683	-3.8
647.77256	6.45
647.78828	7
647.80401	1.35
647.81973	4.7
647.83545	7
647.85117	5.9
647.86688	0.6
647.88259	-0.8
647.8983	3.95
647.91401	14.8
647.92971	14.25
647.94542	0.6
647.96112	4.25
647.97681	8.25
647.99251	4
648.0082	10.05
648.02389	8.1
648.03958	-2.75
648.05526	1.45
648.07095	1.75
648.08663	1.7
648.1023	-7.5
648.11798	-7.05
648.13365	-10.6
648.14932	0.7
648.16499	3.75
648.18066	2.55
648.19632	-1.1
648.21198	0.4
648.22764	-0.55
648.24329	2.7
648.25895	11.1
648.2746	-3.7
648.29025	-2.4
648.30589	5.2
648.32153	5.75
648.33718	-4.6
648.35281	11.1
648.36845	37.95
648.38408	71.6
648.39971	8.05
648.41534	-0.7
648.43097	1.4
648.44659	6.85
648.46221	16.6
648.47783	10.6
648.49345	-5.5
648.50906	5.05
648.52467	6.65
648.54028	-5.4
648.55589	-1.7
648.57149	11.55
648.5871	4.2
648.6027	3.15
648.61829	7.7
648.63389	7.1
648.64948	7.45
648.66507	5.95
648.68065	2.25
648.69624	5.8
648.71182	21.75
648.7274	21.65
648.74298	17.85
648.75855	24.7
648.77412	18.45
648.78969	0.8
648.80526	-8.4
648.82083	-0.85
648.83639	6.5
648.85195	-3.75
648.8675	2
648.88306	4.25
648.89861	1.95
648.91416	-2.55
648.92971	4.95
648.94526	12.6
648.9608	15.95
648.97634	9.6
648.99188	6.5
649.00741	4.95
649.02294	2.75
649.03847	3.45
649.054	-4.85
649.06953	6.05
649.08505	-1.2
649.10057	4.65
649.11609	-5.25
649.13161	5.75
649.14712	4.7
649.16263	0.05
649.17814	-1.1
649.19364	3.25
649.20915	22.1
649.22465	22.4
649.24015	20.15
649.25564	26.15
649.27114	11.85
649.28663	6.65
649.30212	2.45
649.3176	2.5
649.33309	-5.7
649.34857	1.35
649.36405	9.15
649.37952	14.15
649.395	12.55
649.41047	12.75
649.42594	10.45
649.4414	0.7
649.45687	3.75
649.47233	-0.95
649.48779	2.9
649.50324	14.35
649.5187	15.95
649.53415	14.95
649.5496	11.95
649.56505	13.45
649.58049	12.2
649.59593	5
649.61137	5.35
649.62681	10.55
649.64224	1.45
649.65768	-1.35
649.67311	14.65
649.68853	21.3
649.70396	13.3
649.71938	16.1
649.7348	10.5
649.75022	21.35
649.76563	4.7
649.78105	7.85
649.79646	-3.4
649.81186	5.4
649.82727	15.25
649.84267	2.85
649.85807	9.85
649.87347	-3.3
649.88886	0.65
649.90426	4.25
649.91965	3.2
649.93504	1.1
649.95042	9.4
649.9658	-3.45
649.98119	3.6
649.99656	7.25
650.01194	1.65
650.02731	0.15
650.04268	-2.4
650.05805	-1.6
650.07342	2.5
650.08878	7.2
650.10414	7.05
650.1195	-4.05
650.13486	1.1
650.15021	2.5
650.16556	12.45
650.18091	10.95
650.19626	12.1
650.2116	13.8
650.22694	5.65
650.24228	13.45
650.25762	6.7
650.27295	3.4
650.28828	0.6
650.30361	7.1
650.31894	3.85
650.33426	2
650.34958	3.25
650.3649	24.95
650.38022	13.2
650.39553	-1.15
650.41085	3.3
650.42616	4.6
650.44146	5.4
650.45677	7.3
650.47207	8.05
650.48737	15.05
650.50267	-1.9
650.51796	-4.85
650.53325	5.05
650.54854	14.2
650.56383	11.55
650.57911	5.5
650.5944	5.15
650.60968	5.65
650.62495	5.25
650.64023	5.3
650.6555	-4.2
650.67077	-2.3
650.68604	2.6
650.70131	8.7
650.71657	7.7
650.73183	12.35
650.74709	8.55
650.76234	5.5
650.77759	8.8
650.79285	10.85
650.80809	9.5
650.82334	6.05
650.83858	5.55
650.85382	7.95
650.86906	12.7
650.8843	23.75
650.89953	7.65
650.91476	2.95
650.92999	-2.35
650.94522	3.1
650.96044	11.65
650.97566	8.6
650.99088	-0.1
651.00609	-0
651.02131	1.75
651.03652	4.75
651.05173	5.3
651.06693	-12.65
651.08214	-5.05
651.09734	-2.05
651.11254	0.6
651.12773	-1.95
651.14293	12.4
651.15812	3.25
651.17331	4.65
651.1885	13.25
651.20368	-2.25
651.21886	-6.6
651.23404	6.85
651.24922	15.75
651.26439	8.85
651.27956	4.8
651.29473	-1.75
651.3099	14.35
651.32507	-9.8
651.34023	-0.45
651.35539	-0.8
651.37054	-6.25
651.3857	-15.1
651.40085	-2.25
651.416	4.4
651.43115	2.55
651.44629	-1.35
651.46144	-7.4
651.47658	4.35
651.49171	20.05
651.50685	10.9
651.52198	4.85
651.53711	1.6
651.55224	-6.95
651.56736	4.05
651.58249	13.85
651.59761	13.2
651.61273	-6.8
651.62784	5.25
651.64295	2.35
651.65806	-4.75
651.67317	-1.65
651.68828	0.25
651.70338	7.4
651.71848	17.45
651.73358	20.2
651.74868	-0.7
651.76377	3.25
651.77886	2.2
651.79395	0.35
651.80904	-3.7
651.82412	7.45
651.8392	2.35
651.85428	7.55
651.86935	12.7
651.88443	15.55
651.8995	4.85
651.91457	-1.75
651.92963	3.95
651.9447	19.85
651.95976	12.45
651.97482	5.65
651.98988	6
652.00493	-2.35
652.01998	2.1
652.03503	14.35
652.05008	25.15
652.06512	60.3
652.08016	9.15
652.0952	0.85
652.11024	26.6
652.12527	9.15
652.14031	4.7
652.15534	8.15
652.17036	13.7
652.18539	4.35
652.20041	12
652.21543	8.8
652.23045	-0.65
652.24546	4.8
652.26047	13.45
652.27548	9.85
652.29049	7.4
652.3055	2.15
652.3205	9.6
652.3355	6.75
652.3505	1.45
652.36549	2.75
652.38048	12.95
652.39547	14.9
652.41046	10.55
652.42545	17.3
652.44043	14.6
652.45541	1.6
652.47039	11.05
652.48536	3.85
652.50034	-6.7
652.51531	-3.85
652.53028	4.95
652.54524	4.45
652.5602	1.25
652.57517	-4.6
652.59012	30
652.60508	76.15
652.62003	13.75
652.63498	-3.85
652.64993	-3.85
652.66488	-2.2
652.67982	6.45
652.69476	14.8
652.7097	2.4
652.72464	-3.65
652.73957	4.9
652.7545	12.85
652.76943	28.7
652.78436	9.4
652.79928	4.7
652.8142	11
652.82912	3.8
652.84404	3.3
652.85895	-5.7
652.87387	3.6
652.88877	16.9
652.90368	17.8
652.91859	-1.55
652.93349	0.55
652.94839	3.8
652.96328	5
652.97818	-0.5
652.99307	2.5
653.00796	12.1
653.02285	-0.45
653.03773	2.9
653.05261	0.1
653.06749	-2.55
653.08237	-3.55
653.09725	1.3
653.11212	6.2
653.12699	3.2
653.14186	13.15
653.15672	20.55
653.17158	3.35
653.18644	13
653.2013	5.2
653.21616	10.15
653.23101	16.25
653.24586	2
653.26071	-2.9
653.27555	11.55
653.29039	15.4
653.30524	-1.05
653.32007	3.8
653.33491	91.7
653.34974	217.95
653.36457	21.65
653.3794	0.55
653.39423	-3.75
653.40905	-1.35
653.42387	-1.45
653.43869	3.75
653.45351	-0.65
653.46832	-7.55
653.48313	-6.25
653.49794	2.8
653.51274	11.65
653.52755	12.5
653.54235	5.6
653.55715	-5.75
653.57194	-2.2
653.58674	10.65
653.60153	8.3
653.61632	2.55
653.6311	-6.8
653.64589	-2.5
653.66067	8.9
653.67545	3.05
653.69023	-2.15
653.705	-4.2
653.71977	-4.7
653.73454	-2.15
653.74931	-0.05
653.76407	5.35
653.77883	6.5
653.79359	7.15
653.80835	3.4
653.8231	3.55
653.83786	9.45
653.85261	18.45
653.86735	1.8
653.8821	10.1
653.89684	6.7
653.91158	7.4
653.92632	15.25
653.94105	10.95
653.95579	12.55
653.97052	0.1
653.98524	-0.85
653.99997	2.75
654.01469	3.4
654.02941	8.75
654.04413	15.65
654.05884	7.05
654.07356	18.8
654.08827	49.85
654.10297	96.65
654.11768	22.85
654.13238	20.55
654.14708	17.5
654.16178	4.3
654.17648	4.55
654.19117	-5.75
654.20586	-7
654.22055	8.5
654.23524	8.6
654.24992	32.2
654.2646	55.6
654.27928	23.35
654.29395	16.4
654.30863	24.05
654.3233	26.25
654.33797	16.6
654.35263	18
654.3673	21.4
654.38196	17.45
654.39662	-0.35
654.41127	6.7
654.42593	14.35
654.44058	14.55
654.45523	4.5
654.46987	2.15
654.48452	11.6
654.49916	10.8
654.5138	10.9
654.52844	9.65
654.54307	11.55
654.5577	25.4
654.57233	15.6
654.58696	12.4
654.60158	14.9
654.6162	9.85
654.63082	6.7
654.64544	13.05
654.66005	5.45
654.67467	5
654.68928	16.15
654.70388	13.65
654.71849	12.25
654.73309	47.1
654.74769	99.45
654.76229	17.45
654.77688	17.85
654.79148	13.85
654.80607	8
654.82065	22.35
654.83524	20.65
654.84982	12.7
654.8644	11.25
654.87898	3.7
654.89355	8.85
654.90813	13.05
654.9227	9.75
654.93727	6.9
654.95183	12.9
654.96639	16.3
654.98095	16.25
654.99551	11.6
655.01007	22.4
655.02462	6.6
655.03917	9.75
655.05372	10.85
655.06827	14.3
655.08281	28.2
655.09735	27.7
655.11189	30.05
655.12643	26.75
655.14096	20
655.15549	24.9
655.17002	14.7
655.18454	19.05
655.19907	22.15
655.21359	35.4
655.22811	41.6
655.24262	34.3
655.25714	34.95
655.27165	45.95
655.28616	41.25
655.30067	47.8
655.31517	53.75
655.32967	68.1
655.34417	90.3
655.35867	140.05
655.37316	322.9
655.38765	1045.4
655.40214	3128
655.41663	6674.45
655.43111	9468.45
655.4456	9051.9
655.46008	6613.2
655.47455	4795.25
655.48903	3954.3
655.5035	3246.45
655.51797	2479.65
655.53244	1725.2
655.5469	1227.35
655.56136	1315.7
655.57582	2673.85
655.59028	5761.8
655.60474	8970.7
655.61919	9549.8
655.63364	7484.8
655.64809	5315.95
655.66253	4221.1
655.67697	3503.5
655.69141	2761.9
655.70585	1959.7
655.72029	1265.6
655.73472	737.2
655.74915	410.55
655.76358	238.6
655.778	154.35
655.79243	124.95
655.80685	89.1
655.82127	59.85
655.83568	52.85
655.8501	61.6
655.86451	42.15
655.87891	38.95
655.89332	35.05
655.90772	19.15
655.92212	17.9
655.93652	35.6
655.95092	27.6
655.96531	19.55
655.9797	10.3
655.99409	19.35
656.00848	15.7
656.02286	23.35
656.03724	17.45
656.05162	11.9
656.066	2.5
656.08037	8.75
656.09475	13.15
656.10911	9.15
656.12348	11.9
656.13784	15.8
656.15221	13.05
656.16657	26.15
656.18092	18.3
656.19528	19.9
656.20963	10.1
656.22398	7.95
656.23833	17.45
656.25267	18.75
656.26701	22.95
656.28135	5.95
656.29569	8.9
656.31002	17.45
656.32436	26.8
656.33869	28
656.35301	9.2
656.36734	11.4
656.38166	1.9
656.39598	-1.95
656.4103	-4.05
656.42461	2.65
656.43892	3
656.45323	0.65
656.46754	9
656.48185	9.05
656.49615	5.05
656.51045	9.5
656.52475	12.1
656.53904	6.9
656.55334	1.75
656.56763	2.5
656.58192	7.5
656.5962	7.05
656.61048	2.85
656.62476	6.35
656.63904	7.6
656.65332	7.9
656.66759	5.6
656.68186	4.35
656.69613	7.3
656.7104	2.4
656.72466	11.2
656.73892	12.4
656.75318	17.6
656.76744	2.15
656.78169	4.4
656.79594	22.55
656.81019	35.2
656.82444	-3.15
656.83868	5.1
656.85292	6.05
656.86716	5.8
656.8814	10.6
656.89563	6.55
656.90986	3.8
656.92409	4.2
656.93832	9.8
656.95254	8.9
656.96676	11.2
656.98098	20.95
656.9952	8.65
657.00941	9.5
657.02363	-3.05
657.03784	-0.25
657.05204	2.65
657.06625	20.7
657.08045	3.5
657.09465	4.5
657.10885	-4.85
657.12304	2.1
657.13723	2.35
657.15142	7.1
657.16561	1.55
657.1798	-4
657.19398	-14.55
657.20816	-2.2
657.22234	-3.65
657.23651	0.05
657.25068	4.6
657.26485	6.75
657.27902	3.6
657.29319	-5.7
657.30735	4.6
657.32151	4.75
657.33567	8.55
657.34982	22.25
657.36398	15.3
657.37813	16.65
657.39227	2.5
657.40642	14.3
657.42056	22
657.4347	8.25
657.44884	6.25
657.46298	3.7
657.47711	13.8
657.49124	21.35
657.50537	0.65
657.5195	2.1
657.53362	2.45
657.54774	5.3
657.56186	18.45
657.57598	26.25
657.59009	7.2
657.6042	8.3
657.61831	6.3
657.63242	5.7
657.64652	9.05
657.66062	10.25
657.67472	13.3
657.68882	10.25
657.70291	4.6
657.717	7.85
657.73109	6.15
657.74518	13.25
657.75926	1.1
657.77335	-3.25
657.78742	0.05
657.8015	-1.75
657.81558	7.1
657.82965	10.6
657.84372	-2.35
657.85778	6.95
657.87185	1.4
657.88591	5.05
657.89997	-0.35
657.91403	14.1
657.92808	16
657.94214	8.3
657.95618	8.95
657.97023	4.25
657.98428	10.8
657.99832	32.35
658.01236	7.15
658.0264	-10.4
658.04043	2.15
658.05447	6.75
658.0685	-6.6
658.08252	-3.15
658.09655	9.45
658.11057	17.9
658.12459	17.85
658.13861	23.25
658.15263	9.95
658.16664	21.05
658.18065	7.45
658.19466	0.15
658.20866	-5.3
658.22267	-2.8
658.23667	8.7
658.25067	6.25
658.26466	7.8
658.27865	10.75
658.29265	2.9
658.30663	4.8
658.32062	3.85
658.3346	2.8
658.34858	7.1
658.36256	6.15
658.37654	4.1
658.39051	13.25
658.40448	13.2
658.41845	4.15
658.43242	4.8
658.44638	-2.9
658.46035	-1.05
658.4743	5.95
658.48826	11.45
658.50221	17.9
658.51617	9.8
658.53012	-2.75
658.54406	0.75
658.55801	7.35
658.57195	1.1
658.58589	14.95
658.59983	9.7
658.61376	-3.05
658.62769	-0.15
658.64162	11.55
658.65555	10.55
658.66947	2.5
658.6834	36.8
658.69731	92.1
658.71123	13.25
658.72515	12.9
658.73906	9.15
658.75297	7.85
658.76688	3.8
658.78078	12.75
658.79468	2
658.80858	-5.2
658.82248	-0.6
658.83638	6.05
658.85027	12.3
658.86416	7.4
658.87805	7.2
658.89193	-1.3
658.90582	3.8
658.9197	8.7
658.93357	7.8
658.94745	3.65
658.96132	-5.95
658.97519	8.8
658.98906	-2.35
659.00293	-4.85
659.01679	-4.5
659.03065	-1.8
659.04451	11.6
659.05837	3.65
659.07222	3.15
659.08607	5.3
659.09992	9.85
659.11377	6.6
659.12761	-2.1
659.14145	3.15
659.15529	8.5
659.16913	9.35
659.18296	10.05
659.19679	3.8
659.21062	9.55
659.22445	9
659.23827	32.6
659.25209	20.9
659.26591	11.8
659.27973	17.55
659.29354	4.95
659.30735	1.85
659.32116	6.95
659.33497	4.6
659.34877	-9.15
659.36258	-0.8
659.37637	16.1
659.39017	13.1
659.40397	-6.05
659.41776	1.4
659.43155	6.5
659.44533	5.15
659.45912	16
659.4729	0.5
659.48668	7.3
659.50046	5.3
659.51423	3.55
659.52801	12.2
659.54178	18
659.55554	-1.1
659.56931	6.4
659.58307	4.2
659.59683	7.55
659.61059	6.75
659.62434	34
659.6381	66.9
659.65185	6.8
659.6656	2.6
659.67934	5.5
659.69308	5.9
659.70682	7.9
659.72056	8.5
659.7343	12.6
659.74803	2.7
659.76176	2.75
659.77549	6.45
659.78922	16.55
659.80294	-6.85
659.81666	-1.9
659.83038	10.95
659.84409	9.15
659.85781	-2.65
659.87152	-0.7
659.88523	3.9
659.89893	3.45
659.91264	12.45
659.92634	18.4
659.94004	12.8
659.95373	11.05
659.96743	11.6
659.98112	15.2
659.99481	10.7
660.00849	2.95
660.02218	10.35
660.03586	11.2
660.04954	-4.1
660.06322	3.3
660.07689	18.7
660.09056	25.85
660.10423	-3.75
660.1179	5.65
660.13156	16.6
660.14522	8.35
660.15888	4.85
660.17254	4.55
660.1862	9.95
660.19985	7.5
660.2135	-1.95
660.22714	4.65
660.24079	2.95
660.25443	2.15
660.26807	10.05
660.28171	11.55
660.29534	11
660.30898	5.55
660.32261	-2.1
660.33623	-10.55
660.34986	-10.9
660.36348	4.6
660.3771	4.2
660.39072	20.85
660.40433	18.15
660.41795	16.85
660.43156	2.1
660.44517	9.1
660.45877	14.05
660.47237	5.95
660.48598	2.65
660.49957	2.35
660.51317	6.15
660.52676	4.95
660.54035	12.05
660.55394	15
660.56753	7
660.58111	14.7
660.59469	21.4
660.60827	0.65
660.62185	4.8
660.63542	12.1
660.64899	14.75
660.66256	19.55
660.67613	13.55
660.68969	16.95
660.70325	14.9
660.71681	2.5
660.73037	-2.35
660.74392	5.4
660.75747	2.45
660.77102	3.65
660.78457	2
660.79811	12.55
660.81165	17.95
660.82519	9.2
660.83873	4.25
660.85226	9.35
660.86579	15.75
660.87932	9.95
660.89285	4.75
660.90637	20.55
660.9199	14.35
660.93342	9.65
660.94693	18.5
660.96045	6.65
660.97396	7.8
660.98747	17.55
661.00098	2.25
661.01448	-4.55
661.02798	0.95
661.04148	9.7
661.05498	21.9
661.06848	12.9
661.08197	2.6
661.09546	21.95
661.10895	39.05
661.12243	12.8
661.13591	11.55
661.14939	-3.8
661.16287	-1.25
661.17635	17.05
661.18982	10.35
661.20329	26.1
661.21676	24.35
661.23022	8.8
661.24369	7.85
661.25715	10.6
661.27061	4.95
661.28406	15.1
661.29752	-5.5
661.31097	0.3
661.32441	6.35
661.33786	5.3
661.3513	0.25
661.36474	2.4
661.37818	7
661.39162	8.6
661.40505	44.15
661.41848	107.3
661.43191	16.15
661.44534	4.65
661.45876	7.2
661.47218	13.25
661.4856	12.65
661.49902	16.95
661.51243	5.45
661.52585	17.85
661.53925	10.1
661.55266	7.65
661.56606	3.95
661.57947	7.15
661.59287	-3.75
661.60626	-3.75
661.61966	13.2
661.63305	10.6
661.64644	9.7
661.65983	9
661.67321	9.45
661.68659	6.55
661.69997	19.6
661.71335	11.2
661.72672	37.05
661.7401	81.35
661.75347	7.4
661.76683	12.4
661.7802	24.4
661.79356	23.9
661.80692	0.7
661.82028	6.25
661.83363	6.35
661.84698	2.4
661.86033	13.3
661.87368	11.45
661.88703	11.6
661.90037	6.5
661.91371	4.35
661.92705	2.05
661.94038	3.15
661.95372	2.55
661.96705	19.65
661.98038	29.75
661.9937	10.65
662.00702	4.3
662.02034	15.8
662.03366	13.85
662.04698	8.5
662.06029	-1.6
662.0736	-4.5
662.08691	-0.2
662.10022	5.8
662.11352	12.55
662.12682	11.55
662.14012	-8.25
662.15342	3.35
662.16671	15.75
662.18	3.55
662.19329	1.15
662.20658	-2.65
662.21986	2.35
662.23314	6.95
662.24642	-5.05
662.2597	9.25
662.27297	8.5
662.28624	1.8
662.29951	10.45
662.31278	-1.1
662.32604	-5.1
662.3393	4
662.35256	4.8
662.36582	3.95
662.37907	-2.3
662.39233	0.4
662.40558	8.6
662.41882	7.9
662.43207	15.35
662.44531	3.9
662.45855	-1.5
662.47179	1.35
662.48502	5.85
662.49825	3.8
662.51148	11.35
662.52471	12.9
662.53794	3.15
662.55116	13.7
662.56438	8.4
662.5776	1.35
662.59081	10.9
662.60402	11.95
662.61723	6.9
662.63044	13.7
662.64365	7.95
662.65685	4.1
662.67005	15.95
662.68325	23.35
662.69644	5.1
662.70964	5.5
662.72283	8.45
662.73601	13.15
662.7492	16.75
662.76238	8.6
662.77556	5.45
662.78874	12.6
662.80192	14.55
662.81509	21.15
662.82826	9.95
662.84143	-6.8
662.8546	1.9
662.86776	5.55
662.88092	-4.4
662.89408	-1.95
662.90724	6.3
662.92039	24.65
662.93354	3.65
662.94669	0.3
662.95984	6.5
662.97298	2.5
662.98612	-3.35
662.99926	-5.5
663.0124	9.15
663.02553	8.55
663.03866	9.85
663.05179	6.05
663.06492	11.85
663.07804	14.2
663.09116	15.95
663.10428	1.95
663.1174	-2.8
663.13052	3.9
663.14363	4.5
663.15674	-3.85
663.16984	2.95
663.18295	11.4
663.19605	17.55
663.20915	14.95
663.22225	12.15
663.23534	14.35
663.24843	0.4
663.26152	-1.35
663.27461	-1.5
663.2877	3.8
663.30078	3.75
663.31386	6.8
663.32694	8.25
663.34001	18.95
663.35308	16.85
663.36615	4.9
663.37922	15.5
663.39229	18.6
663.40535	-8.9
663.41841	-4.05
663.43147	-0.85
663.44452	8.05
663.45758	12.25
663.47063	9.95
663.48368	7.55
663.49672	11.5
663.50977	-2.15
663.52281	-0.65
663.53584	-0.05
663.54888	-7.55
663.56191	-7.75
663.57494	-7.45
663.58797	-6.9
663.601	-1.05
663.61402	4.55
663.62704	8.45
663.64006	3.55
663.65308	4.5
663.66609	-5.3
663.6791	-1.75
663.69211	19.25
663.70512	21.35
663.71812	3.3
663.73112	-0.1
663.74412	1.85
663.75712	14.45
663.77011	8.65
663.78311	5.6
663.79609	10.5
663.80908	6.65
663.82207	2.4
663.83505	-8.3
663.84803	1.6
663.861	4.8
663.87398	9.85
663.88695	9.65
663.89992	5
663.91289	3.5
663.92585	6.6
663.93881	3.2
663.95177	16.3
663.96473	29.85
663.97769	9.45
663.99064	-5.45
664.00359	-0.15
664.01654	16.6
664.02948	13.9
664.04242	12.15
664.05536	3.6
664.0683	9
664.08124	12.85
664.09417	17.35
664.1071	15.4
664.12003	12.85
664.13295	5.6
664.14588	4.95
664.1588	1.8
664.17171	0.6
664.18463	10.15
664.19754	6.15
664.21045	13.65
664.22336	11.3
664.23627	13.45
664.24917	11.55
664.26207	3.75
664.27497	2.6
664.28787	14.55
664.30076	17.6
664.31365	3.05
664.32654	6.7
664.33942	-1.4
664.35231	1.4
664.36519	5.5
664.37807	5.9
664.39094	9.4
664.40382	16.15
664.41669	11.3
664.42956	9.9
664.44242	10.85
664.45529	5.7
664.46815	6.45
664.48101	10.05
664.49387	13.1
664.50672	-4.4
664.51957	0.2
664.53242	7.8
664.54527	8.3
664.55811	8.9
664.57095	5.3
664.58379	7
664.59663	-1.05
664.60946	8.05
664.6223	10.05
664.63513	11.8
664.64795	13.6
664.66078	6.8
664.6736	1.8
664.68642	-0.45
664.69924	1.15
664.71205	5
664.72486	-1.95
664.73767	-0.45
664.75048	13.35
664.76329	15.4
664.77609	6.7
664.78889	21.65
664.80169	13.1
664.81448	0.8
664.82728	3.15
664.84007	3.7
664.85285	-1.75
664.86564	9.4
664.87842	-0.15
664.8912	2.45
664.90398	16.75
664.91676	16.5
664.92953	5.8
664.9423	13.5
664.95507	13.5
664.96783	12.35
664.9806	13
664.99336	4.25
665.00612	7.6
665.01887	12.65
665.03163	11.9
665.04438	13.2
665.05713	22.55
665.06987	3.65
665.08262	-7.15
665.09536	-1.95
665.1081	7.85
665.12083	6.95
665.13357	4.55
665.1463	17.5
665.15903	14.45
665.17175	17
665.18448	0.75
665.1972	5.75
665.20992	5.2
665.22263	8.75
665.23535	25.95
665.24806	51.15
665.26077	4.2
665.27348	-2.5
665.28618	12.05
665.29888	11.15
665.31158	-0.2
665.32428	16.2
665.33697	8.75
665.34967	3.5
665.36236	2.45
665.37504	7.35
665.38773	9.2
665.40041	18.35
665.41309	12.7
665.42577	6.75
665.43844	-0.75
665.45111	3.75
665.46378	6.25
665.47645	6.9
665.48912	10.55
665.50178	7.8
665.51444	2.85
665.5271	12.75
665.53975	3.2
665.55241	-0.7
665.56506	3.1
665.5777	0.95
665.59035	6.8
665.60299	11.3
665.61563	16.5
665.62827	16.45
665.64091	4.85
665.65354	-4.95
665.66617	6.35
665.6788	10.85
665.69142	16.8
665.70405	14
665.71667	0.45
665.72929	-0.9
665.7419	5.15
665.75452	-7.15
665.76713	-0.95
665.77974	3.85
665.79234	18.4
665.80495	13.6
665.81755	10.75
665.83015	-3.5
665.84274	8.95
665.85534	-0.25
665.86793	3.1
665.88052	8.7
665.8931	12.65
665.90569	3.05
665.91827	3
665.93085	-6.05
665.94343	9.2
665.956	7.5
665.96857	-2.7
665.98114	-3.45
665.99371	-13.4
666.00627	-15.95
666.01883	-2.95
666.03139	13.95
666.04395	9.25
666.05651	16.3
666.06906	19.8
666.08161	11.3
666.09415	5.7
666.1067	4.15
666.11924	4.1
666.13178	1.05
666.14432	3.8
666.15685	-1.1
666.16939	2.7
666.18192	4.4
666.19444	2.85
666.20697	9.55
666.21949	17.8
666.23201	16.15
666.24453	7.45
666.25705	15.35
666.26956	7.15
666.28207	7.45
666.29458	2.9
666.30708	0.55
666.31959	1.25
666.33209	13.6
666.34458	7
666.35708	11.15
666.36957	15.45
666.38206	14.55
666.39455	12.05
666.40704	4.35
666.41952	10.6
666.432	10.25
666.44448	11.2
666.45696	-0.4
666.46943	4.4
666.4819	5.25
666.49437	9.95
666.50684	7.55
666.5193	-5.2
666.53176	-11.7
666.54422	-2.65
666.55668	12.6
666.56913	1.05
666.58158	5.5
666.59403	14.35
666.60648	10.4
666.61892	4.9
666.63136	9.75
666.6438	8.7
666.65624	6.7
666.66867	14.45
666.68111	9.1
666.69354	8.65
666.70596	10.85
666.71839	1.8
666.73081	3.05
666.74323	0.3
666.75565	14.6
666.76806	10.25
666.78047	-2.2
666.79288	3.3
666.80529	9.85
666.81769	10.55
666.8301	9.6
666.8425	4.1
666.85489	-3.95
666.86729	5.4
666.87968	-2.4
666.89207	-1.45
666.90446	10.05
666.91684	11.3
666.92923	5.15
666.94161	20.65
666.95399	40
666.96636	7.9
666.97873	9.05
666.9911	-6.2
667.00347	6.55
667.01584	12.1
667.0282	12.25
667.04056	-4.1
667.05292	0.3
667.06528	6
667.07763	0.65
667.08998	5.55
667.10233	15.75
667.11467	-0.95
667.12702	-5.4
667.13936	1.35
667.1517	14.5
667.16403	6.8
667.17637	8.6
667.1887	-2.75
667.20103	-9.65
667.21335	-5.55
667.22568	-0.35
667.238	5.55
667.25032	7.9
667.26263	15.2
667.27495	6.95
667.28726	8.35
667.29957	22.2
667.31188	16.9
667.32418	7.55
667.33648	1.2
667.34878	11.6
667.36108	6.25
667.37337	-9.8
667.38566	-1.55
667.39795	5.9
667.41024	4.75
667.42252	18.85
667.43481	13.45
667.44709	9.75
667.45936	7.45
667.47164	11
667.48391	10.65
667.49618	-2.65
667.50845	-3.6
667.52071	6.05
667.53297	5.45
667.54523	6.75
667.55749	6.95
667.56975	9.2
667.582	3.55
667.59425	6.35
667.6065	19.25
667.61874	3.25
667.63099	17.25
667.64323	16.8
667.65546	-2.8
667.6677	-1.3
667.67993	3.35
667.69216	8.1
667.70439	2.05
667.71662	4.8
667.72884	11.45
667.74106	8.6
667.75328	7.65
667.76549	9.35
667.77771	5.7
667.78992	8.2
667.80213	8.6
667.81433	-1.25
667.82654	7.8
667.83874	9
667.85094	-9
667.86313	-9.8
667.87533	-4.85
667.88752	-2.2
667.89971	2.25
667.91189	1.4
667.92408	-4.5
667.93626	1.6
667.94844	9.55
667.96061	12.4
667.97279	3.95
667.98496	1.9
667.99713	-1.55
668.0093	2.45
668.02146	13.65
668.03362	10.2
668.04578	-1.3
668.05794	-12.7
668.07009	-2.3
668.08224	7.8
668.09439	24.15
668.10654	10.4
668.11868	11.6
668.13083	5.4
668.14297	2.1
668.1551	7.95
668.16724	9.3
668.17937	9.5
668.1915	0.05
668.20363	4.4
668.21575	6.75
668.22788	3.05
668.24	11.15
668.25211	18.65
668.26423	17.95
668.27634	-0.2
668.28845	3.8
668.30056	-0.95
668.31266	-0.4
668.32477	5.85
668.33687	-3.6
668.34897	-2.35
668.36106	5.55
668.37315	12.1
668.38524	3.75
668.39733	3.1
668.40942	-5.9
668.4215	2.05
668.43358	0.9
668.44566	5.95
668.45774	6.15
668.46981	2.5
668.48188	3.9
668.49395	7.5
668.50602	15.15
668.51808	8.55
668.53014	4.3
668.5422	5.7
668.55425	8.15
668.56631	8.55
668.57836	-0.95
668.59041	5.15
668.60246	1.15
668.6145	-8.05
668.62654	-6.3
668.63858	0.5
668.65062	5.55
668.66265	15.8
668.67468	3.45
668.68671	4.85
668.69874	19.65
668.71076	8.1
668.72278	4.85
668.7348	5.85
668.74682	3.95
668.75883	4.05
668.77085	-5.4
668.78286	-11.55
668.79486	2.5
668.80687	6
668.81887	0.45
668.83087	6.8
668.84287	-4.1
668.85486	12.95
668.86685	-8.25
668.87884	-2.4
668.89083	6.65
668.90282	10.3
668.9148	3.25
668.92678	-1.65
668.93876	2.7
668.95073	2.4
668.9627	-0.55
668.97468	4.45
668.98664	7.45
668.99861	6.5
669.01057	7.55
669.02253	7.25
669.03449	15.75
669.04645	3.85
669.0584	4.25
669.07035	5.75
669.0823	1.9
669.09424	-6.55
669.10619	-8.4
669.11813	2.75
669.13007	10.05
669.142	12.4
669.15393	15.6
669.16587	4.2
669.17779	-0.25
669.18972	-4.2
669.20164	-2.25
669.21356	7.25
669.22548	5.75
669.2374	4.65
669.24931	4.6
669.26123	-0.7
669.27313	8.95
669.28504	10.55
669.29694	1.2
669.30885	3.7
669.32074	8
669.33264	11.7
669.34454	0.25
669.35643	-8.75
669.36832	-6.6
669.3802	2.55
669.39209	-6.7
669.40397	0.4
669.41585	0.2
669.42773	-4.45
669.4396	-8.2
669.45147	-7.55
669.46334	-4.55
669.47521	4.75
669.48707	-2.4
669.49894	-0.65
669.5108	8.05
669.52265	6.1
669.53451	8.35
669.54636	-1.2
669.55821	5.35
669.57006	1.3
669.5819	-7
669.59375	-3.3
669.60559	1.55
669.61742	4.35
669.62926	-2.2
669.64109	-1.35
669.65292	3.55
669.66475	4.4
669.67658	0.45
669.6884	2.05
669.70022	3.05
669.71204	14.95
669.72385	7.5
669.73567	3.65
669.74748	0.4
669.75928	1.45
669.77109	2.5
669.78289	1
669.79469	3.95
669.80649	1.65
669.81829	-3.85
669.83008	10.05
669.84187	3.35
669.85366	-1.7
669.86545	2.85
669.87723	11.7
669.88901	12.6
669.90079	10.1
669.91257	4.05
669.92434	13.55
669.93611	21.15
669.94788	18
669.95965	11.25
669.97141	-2.8
669.98317	0.15
669.99493	6.3
670.00669	5.55
670.01844	6.05
670.0302	8.6
670.04194	-0.35
670.05369	13.35
670.06544	-2.8
670.07718	0.75
670.08892	7
670.10065	3.9
670.11239	2.2
670.12412	9
670.13585	8.65
670.14758	-1.1
670.1593	-1.05
670.17103	9.35
670.18275	20.5
670.19446	2.7
670.20618	8.3
670.21789	2.8
670.2296	6.1
670.24131	-0.35
670.25301	9.3
670.26472	19.35
670.27642	13.65
670.28811	3.45
670.29981	4.75
670.3115	0.4
670.32319	-1.85
670.33488	-5.75
670.34656	-1.4
670.35825	11.3
670.36993	9.75
670.38161	2.75
670.39328	-3.05
670.40496	2.85
670.41663	0.35
670.42829	3.55
670.43996	7.85
670.45162	6.85
670.46328	-1
670.47494	-2.1
670.4866	2.1
670.49825	9.2
670.5099	6.55
670.52155	4.05
670.5332	11.5
670.54484	1.4
670.55648	-2.25
670.56812	12.4
670.57976	-0.1
670.59139	-5.95
670.60302	-2
670.61465	5.95
670.62628	0.85
670.6379	-2.3
670.64952	4.6
670.66114	-1.6
670.67276	-11.4
670.68438	-2.05
670.69599	9
670.7076	5.75
670.7192	11.4
670.73081	16.9
670.74241	15.3
670.75401	6.05
670.76561	10.1
670.7772	9.95
670.78879	1.25
670.80038	-2.7
670.81197	-4.7
670.82355	1.15
670.83514	4.7
670.84672	-2.5
670.85829	-3.7
670.86987	-3.25
670.88144	3.65
670.89301	-7.2
670.90458	-8.2
670.91614	-4.65
670.92771	4.25
670.93927	8.55
670.95083	7
670.96238	3.45
670.97393	-1.3
670.98548	-0.8
670.99703	-7.35
671.00858	-6.2
671.02012	-1.65
671.03166	-7.3
671.0432	-6.4
671.05473	1
671.06627	5.65
671.0778	0.55
671.08933	-1.75
671.10085	4.55
671.11238	11.15
671.1239	7.35
671.13542	9.5
671.14693	0.5
671.15845	-1.2
671.16996	8.3
671.18147	12.4
671.19297	10.45
671.20448	15.55
671.21598	0.8
671.22748	0.35
671.23897	-0.35
671.25047	-0.55
671.26196	3
671.27345	-2.65
671.28493	2.45
671.29642	1.45
671.3079	1.8
671.31938	-4.9
671.33085	-6.45
671.34233	7.2
671.3538	14
671.36527	4.4
671.37674	-8.5
671.3882	-7.15
671.39966	-7.45
671.41112	-2.25
671.42258	-7.75
671.43404	4.55
671.44549	10.15
671.45694	0.8
671.46838	5.55
671.47983	10.35
671.49127	2.75
671.50271	15.05
671.51415	6.3
671.52558	7.95
671.53702	10.85
671.54845	13.8
671.55987	2.75
671.5713	2.85
671.58272	4.55
671.59414	11.65
671.60556	29.05
671.61698	21.5
671.62839	5.45
671.6398	7.4
671.65121	0.55
671.66261	-0.95
671.67402	-8.15
671.68542	-3.9
671.69681	-8.8
671.70821	-4.65
671.7196	-0.55
671.73099	-3.4
671.74238	1.05
671.75377	1.05
671.76515	1.5
671.77653	-0.2
671.78791	2.85
671.79929	14.6
671.81066	11.75
671.82203	15.8
671.8334	1.5
671.84477	5.4
671.85613	8
671.86749	10.4
671.87885	17.75
671.89021	30.75
671.90156	2.55
671.91291	-5.75
671.92426	-6.05
671.93561	-0.9
671.94695	0.9
671.9583	-1.65
671.96963	12.15
671.98097	11.7
671.99231	6.5
672.00364	-9.8
672.01497	4.2
672.02629	5.75
672.03762	-5.3
672.04894	-0.9
672.06026	-5.35
672.07158	-7.1
672.08289	-1.05
672.0942	-2.15
672.10551	17.15
672.11682	33.15
672.12813	12.95
672.13943	3.35
672.15073	-1.25
672.16203	0.55
672.17332	1.25
672.18461	0.45
672.1959	12.5
672.20719	13.95
672.21848	14.85
672.22976	15.5
672.24104	11.25
672.25232	6.1
672.26359	1.3
672.27487	-2.55
672.28614	11.6
672.29741	10.6
672.30867	-0.45
672.31993	0.7
672.33119	-0.25
672.34245	0.1
672.35371	-7.1
672.36496	0.2
672.37621	3
672.38746	-3.25
672.39871	1.5
672.40995	3.15
672.42119	12
672.43243	20.45
672.44367	16.15
672.4549	3.25
672.46613	10.35
672.47736	10.15
672.48859	14.55
672.49981	4.95
672.51103	-0.9
672.52225	5.4
672.53347	3.55
672.54468	1.65
672.55589	11.75
672.5671	3.15
672.57831	3
672.58951	8.65
672.60072	1.95
672.61191	-2.8
672.62311	1.4
672.63431	1.2
672.6455	4.9
672.65669	0.3
672.66787	-6.8
672.67906	-2
672.69024	-1.35
672.70142	-1.35
672.7126	0.3
672.72377	-5.9
672.73494	-5.75
672.74611	2
672.75728	1.65
672.76845	3.5
672.77961	7.75
672.79077	0.6
672.80193	-2.95
672.81308	5.9
672.82423	10.1
672.83539	11.85
672.84653	3.65
672.85768	2.2
672.86882	3.1
672.87996	5.05
672.8911	-3.65
672.90223	4.9
672.91337	-0.7
672.9245	0.15
672.93563	-1.35
672.94675	8.2
672.95788	14.05
672.969	-1.65
672.98011	3.85
672.99123	10.1
673.00234	2.95
673.01345	0.85
673.02456	-3.45
673.03567	1.25
673.04677	6.65
673.05787	-1.2
673.06897	0.8
673.08007	1.3
673.09116	0.85
673.10225	-5
673.11334	3.2
673.12443	16.6
673.13551	18.2
673.14659	8.35
673.15767	3.3
673.16875	3.15
673.17982	2.45
673.1909	-2.5
673.20196	1.65
673.21303	-0.75
673.2241	9.3
673.23516	9.85
673.24622	4.9
673.25727	9.35
673.26833	9.2
673.27938	13.25
673.29043	10.55
673.30148	20.4
673.31252	6.4
673.32356	3.55
673.3346	1.75
673.34564	5.95
673.35668	4.35
673.36771	-5.1
673.37874	3.65
673.38977	9.05
673.40079	13.9
673.41181	6.85
673.42283	10.95
673.43385	-0.35
673.44487	8.9
673.45588	0.5
673.46689	-7
673.4779	9.6
673.4889	10.45
673.4999	3.2
673.51091	1.25
673.5219	9.05
673.5329	21.85
673.54389	12.1
673.55488	0.3
673.56587	11.8
673.57686	8.85
673.58784	2.7
673.59882	13.95
673.6098	5.2
673.62077	14.6
673.63175	35.65
673.64272	17.9
673.65369	0.9
673.66465	2.9
673.67562	-0.05
673.68658	9.75
673.69754	0.4
673.70849	6.65
673.71945	11.65
673.7304	16.75
673.74135	28.85
673.75229	25.85
673.76324	28.2
673.77418	5.4
673.78512	10.55
673.79605	9.1
673.80699	13.85
673.81792	6.05
673.82885	11.25
673.83978	15.65
673.8507	12.65
673.86162	5.95
673.87254	3.7
673.88346	9.25
673.89437	7.55
673.90529	11.5
673.9162	13.8
673.9271	9.95
673.93801	11.85
673.94891	-2.05
673.95981	2.2
673.97071	3.05
673.9816	5.05
673.99249	5.65
674.00338	8.6
674.01427	3.45
674.02516	2.35
674.03604	-6.75
674.04692	1.85
674.0578	3.55
674.06867	11.45
674.07954	13.8
674.09042	23.65
674.10128	0.15
674.11215	-10.75
674.12301	3.6
674.13387	8.1
674.14473	2.2
674.15559	5.3
674.16644	1.7
674.17729	-1.95
674.18814	-4.3
674.19898	2.95
674.20983	-3.9
674.22067	1.6
674.23151	-0.85
674.24234	-5.9
674.25318	2.5
674.26401	16.95
674.27483	12.6
674.28566	-1.95
674.29648	-1.25
674.30731	0.35
674.31812	0.4
674.32894	-0
674.33975	9.9
674.35057	6.15
674.36137	7.2
674.37218	11.65
674.38299	-5.5
674.39379	-5.95
674.40459	11.65
674.41538	13.35
674.42618	1.15
674.43697	-2.2
674.44776	-1.25
674.45854	5.75
674.46933	10.7
674.48011	8.2
674.49089	-1.8
674.50167	0.15
674.51244	-0.95
674.52321	-6.7
674.53398	-15.65
674.54475	-9.6
674.55552	3
674.56628	0.55
674.57704	2.35
674.5878	6.2
674.59855	-1.35
674.6093	3.35
674.62005	6.65
674.6308	8.05
674.64155	2
674.65229	2.05
674.66303	1.75
674.67377	11.3
674.6845	12.85
674.69523	18.7
674.70596	11.65
674.71669	0.5
674.72742	-3.4
674.73814	-4.15
674.74886	3.65
674.75958	1
674.77029	5.45
674.78101	-3.85
674.79172	9.3
674.80243	10.7
674.81313	6.95
674.82384	16.7
674.83454	7.45
674.84524	-0.95
674.85593	0.45
674.86663	4.3
674.87732	-0.95
674.888	3.9
674.89869	6.9
674.90937	5
674.92006	14.15
674.93073	12.1
674.94141	6.05
674.95208	5.5
674.96276	17.85
674.97343	17.5
674.98409	13.75
674.99476	15.25
675.00542	-0.3
675.01608	4.1
675.02673	1.8
675.03739	0.35
675.04804	4.65
675.05869	14.7
675.06934	16.55
675.07998	20.5
675.09062	-7.9
675.10126	-8.65
675.1119	-0.1
675.12253	14.7
675.13317	15.3
675.1438	11.25
675.15442	5.25
675.16505	-4
675.17567	6.8
675.18629	20.2
675.19691	11.45
675.20752	7.7
675.21813	5.2
675.22874	3.25
675.23935	12.7
675.24996	9.15
675.26056	14.2
675.27116	11.6
675.28176	6.25
675.29235	6.7
675.30295	5.15
675.31354	1.8
675.32412	0.6
675.33471	-8.35
675.34529	-3.45
675.35587	-3.15
675.36645	-11.5
675.37703	-9.7
675.3876	0.3
675.39817	4.95
675.40874	3.7
675.41931	7.1
675.42987	12.65
675.44043	9.4
675.45099	3.1
675.46154	10.3
675.4721	8.45
675.48265	11.8
675.4932	15.6
675.50374	10.9
675.51429	1.4
675.52483	3.15
675.53537	-4.8
675.5459	2.4
675.55644	8.5
675.56697	4.35
675.5775	3.8
675.58803	0.7
675.59855	8
675.60907	1.3
675.61959	-2.8
675.63011	-2.15
675.64062	-4.35
675.65113	-1.4
675.66164	8
675.67215	0.25
675.68265	10.1
675.69316	9.45
675.70366	2.3
675.71415	16.9
675.72465	22.05
675.73514	13.1
675.74563	12.7
675.75612	-2.75
675.7666	-2.3
675.77708	4.55
675.78756	5.4
675.79804	-0
675.80852	15.25
675.81899	21.3
675.82946	11.05
675.83993	7.45
675.85039	9.15
675.86085	10.45
675.87131	15.45
675.88177	13.4
675.89223	15.05
675.90268	15.95
675.91313	10.35
675.92358	4.85
675.93402	-0.65
675.94447	5.5
675.95491	12.1
675.96535	2.9
675.97578	9.55
675.98622	19.15
675.99665	-2.8
676.00707	5.75
676.0175	12.85
676.02792	10.55
676.03835	1.15
676.04876	2.9
676.05918	0.8
676.06959	6.45
676.08	21.55
676.09041	16.15
676.10082	0.95
676.11122	3.95
676.12162	50.75
676.13202	102.7
676.14242	22.4
676.15281	3.8
676.16321	-4.55
676.17359	1.9
676.18398	-5.75
676.19437	5.8
676.20475	0.4
676.21513	-2.35
676.2255	3.7
676.23588	14.45
676.24625	8.75
676.25662	2.95
676.26699	-5.6
676.27735	2.3
676.28771	22.85
676.29807	9.85
676.30843	10.4
676.31878	2.05
676.32914	6.9
676.33949	11.55
676.34983	13.8
676.36018	3.2
676.37052	-4.8
676.38086	-7.4
676.3912	-2.8
676.40153	5.25
676.41187	13.05
676.4222	2.9
676.43252	12.25
676.44285	20.15
676.45317	7.9
676.46349	-1.05
676.47381	6.4
676.48413	13.85
676.49444	7.4
676.50475	11.1
676.51506	9.35
676.52536	19.35
676.53567	10.4
676.54597	12.4
676.55626	15.25
676.56656	6.05
676.57685	1.65
676.58714	10.4
676.59743	11.8
676.60772	8.15
676.618	0.55
676.62828	0.95
676.63856	-8.4
676.64884	-3
676.65911	-2.45
676.66938	-3.35
676.67965	4.8
676.68992	15.15
676.70018	15.55
676.71044	8
676.7207	26.55
676.73096	17.6
676.74121	12
676.75146	11.7
676.76171	16.05
676.77196	4.8
676.7822	0.35
676.79245	4.5
676.80269	12.05
676.81292	-4.35
676.82316	-5.65
676.83339	11.75
676.84362	24.6
676.85385	5.55
676.86407	7.25
676.87429	5.15
676.88451	13.35
676.89473	11.35
676.90494	-11.5
676.91516	-5.85
676.92537	0.7
676.93557	12.45
676.94578	3.2
676.95598	-3.8
676.96618	-6.6
676.97638	-2
676.98657	2.05
676.99677	0.3
677.00696	9.8
677.01714	19.9
677.02733	12.65
677.03751	10.05
677.04769	3.65
677.05787	0.8
677.06805	6.7
677.07822	5
677.08839	8.75
677.09856	-1.8
677.10872	1.3
677.11889	4.05
677.12905	10.05
677.13921	7.7
677.14936	1.15
677.15951	-1.9
677.16967	5.8
677.17981	9.25
677.18996	12
677.2001	-1.65
677.21025	-5.4
677.22038	3.7
677.23052	2.95
677.24065	-0.1
677.25078	0.85
677.26091	8.4
677.27104	8.25
677.28116	2.1
677.29129	2.4
677.3014	2.5
677.31152	22
677.32164	56.75
677.33175	3.75
677.34186	3.9
677.35196	7.45
677.36207	9.15
677.37217	8.2
677.38227	10.6
677.39236	8.7
677.40246	3.1
677.41255	-7.1
677.42264	1.6
677.43273	8.05
677.44281	10.2
677.45289	14
677.46297	-0.4
677.47305	-5.3
677.48313	-2.45
677.4932	3.35
677.50327	0.4
677.51334	6.3
677.5234	5.55
677.53346	13.2
677.54352	7.15
677.55358	3.75
677.56364	11.5
677.57369	21.4
677.58374	10.25
677.59379	-6.6
677.60383	-2.75
677.61388	3.25
677.62392	3.8
677.63395	6.85
677.64399	10.1
677.65402	16.7
677.66405	9.6
677.67408	-1.95
677.68411	3.8
677.69413	10.4
677.70415	7.45
677.71417	11
677.72419	-4.3
677.7342	1.75
677.74421	-2.25
677.75422	-4.2
677.76422	0.4
677.77423	8.75
677.78423	14.95
677.79423	6.7
677.80422	9.9
677.81422	7.95
677.82421	-0.4
677.8342	1.35
677.84418	1.85
677.85417	7.5
677.86415	13.95
677.87413	4.9
677.88411	-0
677.89408	12.35
677.90405	8.85
677.91402	8.8
677.92399	10.4
677.93395	23.8
677.94391	15.8
677.95387	-1.3
677.96383	-0.2
677.97378	7.6
677.98374	1.85
677.99369	5.9
678.00363	15.15
678.01358	-0.2
678.02352	4.15
678.03346	13.05
678.0434	3.4
678.05333	1.3
678.06326	8.45
678.07319	3.85
678.08312	-1
678.09305	14.4
678.10297	4.75
678.11289	-2.2
678.12281	9.45
678.13272	5.25
678.14264	-0.85
678.15255	3.25
678.16245	5.1
678.17236	0.15
678.18226	3.1
678.19216	0.85
678.20206	-6.9
678.21196	-3.3
678.22185	11.45
678.23174	13.7
678.24163	10.35
678.25151	11.05
678.2614	19.6
678.27128	21.15
678.28116	8.65
678.29103	10.1
678.30091	4.9
678.31078	-1.4
678.32065	-0.05
678.33051	4.9
678.34037	3.85
678.35024	-7.15
678.36009	-1.3
678.36995	3
678.37981	8.75
678.38966	-6.6
678.39951	-3.3
678.40935	2.1
678.4192	-1.3
678.42904	-4.5
678.43888	7.5
678.44871	4.05
678.45855	8.75
678.46838	16.9
678.47821	-1
678.48804	1.1
678.49786	17.3
678.50768	25
678.5175	13.55
678.52732	16.65
678.53713	11.4
678.54694	6.25
678.55675	-5.4
678.56656	-5.65
678.57637	-4.95
678.58617	-1.75
678.59597	11.45
678.60577	6.55
678.61556	-5.15
678.62535	5.25
678.63514	18.9
678.64493	11.05
678.65472	1.15
678.6645	13.75
678.67428	9.55
678.68406	7.85
678.69383	7.05
678.7036	0.9
678.71337	4.85
678.72314	8.2
678.73291	8.2
678.74267	0.8
678.75243	2.55
678.76219	1.85
678.77195	5.2
678.7817	0.4
678.79145	2.25
678.8012	6.95
678.81094	-1.85
678.82069	0.65
678.83043	32.55
678.84017	64.95
678.8499	3.9
678.85964	5.5
678.86937	8.15
678.87909	11.3
678.88882	7
678.89854	2.15
678.90827	5.65
678.91798	1.3
678.9277	0.4
678.93742	-5.2
678.94713	2.25
678.95684	2.9
678.96654	7.75
678.97625	9.25
678.98595	8.3
678.99565	-1.45
679.00534	-6.9
679.01504	-4.1
679.02473	-0
679.03442	-1
679.04411	7.95
679.05379	6
679.06347	-1.75
679.07315	-2.15
679.08283	4.3
679.0925	-0.55
679.10218	7.9
679.11185	-0.75
679.12151	0.15
679.13118	8.5
679.14084	-2.65
679.1505	-1
679.16016	-1.5
679.16981	-2.6
679.17946	10.1
679.18911	10.55
679.19876	-3.4
679.20841	10.95
679.21805	14.7
679.22769	9.9
679.23733	10.65
679.24696	17.1
679.2566	7.1
679.26623	2.9
679.27585	9.25
679.28548	-3.3
679.2951	4.75
679.30472	-3.3
679.31434	-4.05
679.32396	-3.25
679.33357	-5.95
679.34318	15.25
679.35279	26.7
679.3624	2.3
679.372	5.75
679.3816	10.15
679.3912	0.1
679.40079	24.15
679.41039	14.05
679.41998	3.95
679.42957	2.25
679.43915	-2.75
679.44874	4.45
679.45832	13.55
679.4679	4.35
679.47747	-6.1
679.48705	-4.2
679.49662	4.45
679.50619	4.5
679.51575	-0.05
679.52532	3.9
679.53488	12.25
679.54444	5.95
679.554	-0.25
679.56355	3.95
679.5731	9.7
679.58265	2.7
679.5922	-1.7
679.60174	10.7
679.61129	14.9
679.62083	3.4
679.63036	-8.4
679.6399	0.95
679.64943	15.3
679.65896	7.15
679.66849	-1.15
679.67801	8.3
679.68753	11.15
679.69705	19.95
679.70657	24.5
679.71609	15.85
679.7256	18.45
679.73511	9
679.74462	-1.4
679.75412	1.95
679.76362	11.55
679.77312	12.6
679.78262	4.5
679.79212	4.2
679.80161	8.5
679.8111	1.3
679.82059	-0.5
679.83007	13.6
679.83956	11.85
679.84904	4.95
679.85852	9.5
679.86799	-1.3
679.87747	3.9
679.88694	-1.8
679.8964	-1.9
679.90587	-3.55
679.91533	9.45
679.92479	5.85
679.93425	0.8
679.94371	13.3
679.95316	13.15
679.96261	11.45
679.97206	3.25
679.98151	-2.05
679.99095	-0.65
680.00039	-1.1
680.00983	2.15
680.01927	10.7
680.0287	2.9
680.03814	17.4
680.04756	2.1
680.05699	-3.6
680.06641	6.5
680.07584	1.2
680.08526	-6.3
680.09467	-0
680.10409	-2.2
680.1135	-3.45
680.12291	1.9
680.13232	8.2
680.14172	15.4
680.15112	8.15
680.16052	0.35
680.16992	4.4
680.17931	9.4
680.18871	9.1
680.1981	-5.65
680.20748	-4.45
680.21687	-1.65
