Data from HR4C25001_14-14-43-212.txt Node
Date: Mon Jun 15 14:14:43 CDT 2026
User: jam28248
Spectrometer: HR4C2500
Trigger mode: 4
Integration Time (sec): 7.500000E-2
Scans to average: 20
Electric dark correction enabled: true
Nonlinearity correction enabled: false
Boxcar width: 0
XAxis mode: Wavelengths
Number of Pixels in Spectrum: 3648
>>>>>Begin Spectral Data<<<<<
629.66646	-15.65
629.6848	-15.65
629.70313	-15.65
629.72147	-51.2
629.7398	-39.85
629.75812	-4.05
629.77645	2
629.79477	7.6
629.81309	-0.25
629.83141	-10.05
629.84972	4.7
629.86803	3.45
629.88634	12.55
629.90465	-11.4
629.92295	-5.55
629.94126	-3.3
629.95956	0.9
629.97785	3.45
629.99615	-0.4
630.01444	15.9
630.03273	12.35
630.05102	12
630.0693	7.1
630.08759	12.2
630.10587	3.85
630.12415	2.65
630.14242	3.5
630.16069	-9.7
630.17896	-1.05
630.19723	7.85
630.2155	20.9
630.23376	62.8
630.25202	24.8
630.27028	19.05
630.28854	14.1
630.30679	5.65
630.32504	4.35
630.34329	5.3
630.36153	12.05
630.37978	21.65
630.39802	7.35
630.41626	1.65
630.43449	-3.85
630.45273	-1.35
630.47096	7.25
630.48919	8.1
630.50741	13.45
630.52564	3.7
630.54386	7.65
630.56208	20.55
630.58029	6.1
630.59851	2.25
630.61672	4.75
630.63493	15.75
630.65313	5.55
630.67134	5.25
630.68954	1.6
630.70774	12.05
630.72594	16.6
630.74413	3.95
630.76232	-4.95
630.78051	-1.25
630.7987	3.75
630.81688	9.3
630.83507	15.6
630.85325	14.05
630.87142	1.25
630.8896	3.2
630.90777	-1.45
630.92594	-11.3
630.94411	11.95
630.96227	21.3
630.98043	35.9
630.99859	12.7
631.01675	6.55
631.03491	-0.7
631.05306	-8.2
631.07121	7.5
631.08936	7.35
631.1075	-0.25
631.12564	7.65
631.14379	8.35
631.16192	13
631.18006	7.75
631.19819	8.95
631.21632	7.6
631.23445	-6.25
631.25258	-2.9
631.2707	7.3
631.28882	11.35
631.30694	9.45
631.32505	5.25
631.34317	11.4
631.36128	4.25
631.37939	14.2
631.39749	5.5
631.4156	2.2
631.4337	-4.4
631.4518	4.45
631.46989	-7.65
631.48799	-2.3
631.50608	0.5
631.52417	-5.5
631.54225	1.15
631.56034	5.65
631.57842	4.4
631.5965	2.75
631.61457	-12.45
631.63265	-1.65
631.65072	5.35
631.66879	1.95
631.68685	12.5
631.70492	22.15
631.72298	14.05
631.74104	-0.45
631.7591	-0.6
631.77715	1.9
631.7952	10.85
631.81325	12.4
631.8313	0.65
631.84934	15.1
631.86739	16.2
631.88543	2.35
631.90346	7.85
631.9215	1.3
631.93953	6.35
631.95756	1.3
631.97559	7.5
631.99361	-5.1
632.01163	-7.95
632.02965	4.5
632.04767	13.4
632.06569	14.9
632.0837	9.65
632.10171	-0.65
632.11972	-7.5
632.13772	1.1
632.15573	16.35
632.17373	1.8
632.19172	-7.7
632.20972	-2.95
632.22771	-5.1
632.2457	0.6
632.26369	4.35
632.28168	12.4
632.29966	1.35
632.31764	6.05
632.33562	5.15
632.35359	7.45
632.37157	6.05
632.38954	6
632.40751	-1.4
632.42547	-8.8
632.44344	11.35
632.4614	7.5
632.47936	3.45
632.49731	1.55
632.51527	1.15
632.53322	10.15
632.55117	9.45
632.56911	3.5
632.58706	-1.5
632.605	-1.05
632.62294	3.4
632.64087	7.5
632.65881	-6.9
632.67674	-0.85
632.69467	-1.85
632.7126	1.45
632.73052	5.8
632.74844	6.45
632.76636	8.9
632.78428	12.35
632.80219	18.65
632.8201	22.75
632.83801	4.05
632.85592	2.35
632.87383	14
632.89173	3.85
632.90963	-4.15
632.92753	2.65
632.94542	3.45
632.96331	6.55
632.9812	7.2
632.99909	2.65
633.01697	0.6
633.03486	6.7
633.05274	1.55
633.07061	2.2
633.08849	7.45
633.10636	11.4
633.12423	17.1
633.1421	7.65
633.15997	20.95
633.17783	5.6
633.19569	9.25
633.21355	13.05
633.2314	13.25
633.24926	-1.35
633.26711	1.55
633.28495	8.2
633.3028	-4.15
633.32064	0.65
633.33848	8.9
633.35632	19.6
633.37416	17.85
633.39199	10.1
633.40982	-2.95
633.42765	7
633.44548	2.9
633.4633	-5.35
633.48112	-2.85
633.49894	-7.4
633.51676	2.1
633.53457	2.95
633.55238	7.25
633.57019	1.4
633.588	-5.85
633.6058	-5.45
633.6236	5.9
633.6414	7.8
633.6592	-6.5
633.67699	-8.15
633.69478	1.95
633.71257	14.65
633.73036	14.95
633.74815	-2.9
633.76593	-2.2
633.78371	2.75
633.80148	-1.1
633.81926	-1.8
633.83703	-1.1
633.8548	-15.8
633.87257	-10.15
633.89033	-1.65
633.90809	5.5
633.92585	3.85
633.94361	-2.75
633.96137	0.45
633.97912	8.1
633.99687	-13.55
634.01462	6.3
634.03236	15.8
634.0501	13.45
634.06784	-4.75
634.08558	13
634.10332	10.5
634.12105	1.45
634.13878	13.8
634.15651	13.7
634.17423	8.25
634.19196	2.45
634.20968	-1.8
634.22739	11.6
634.24511	14.1
634.26282	14.6
634.28053	19.8
634.29824	10.1
634.31595	8.05
634.33365	3.75
634.35135	-5.4
634.36905	-8.3
634.38675	3.3
634.40444	7.15
634.42213	0.7
634.43982	-0.45
634.4575	-2.6
634.47519	13.85
634.49287	23.9
634.51055	6.15
634.52822	4.75
634.5459	1.75
634.56357	-0.85
634.58124	-13.4
634.59891	1.45
634.61657	5.25
634.63423	14.05
634.65189	13.4
634.66955	0.55
634.6872	12.55
634.70485	5.9
634.7225	-0.45
634.74015	7.5
634.75779	7.65
634.77544	5.6
634.79307	2.7
634.81071	16.1
634.82835	5.8
634.84598	1.1
634.86361	-0.75
634.88123	8.45
634.89886	2.8
634.91648	2.85
634.9341	-1.15
634.95172	5.25
634.96933	6.45
634.98695	9
635.00456	-0.45
635.02216	7.05
635.03977	6.35
635.05737	2.05
635.07497	-1.25
635.09257	5.9
635.11016	9.4
635.12776	5.7
635.14535	-1.9
635.16294	14.3
635.18052	7.35
635.1981	7.15
635.21569	7.45
635.23326	0.55
635.25084	9.15
635.26841	-2.1
635.28598	2.55
635.30355	1.9
635.32112	-2.95
635.33868	-9.9
635.35624	-3.65
635.3738	2.1
635.39136	-4.9
635.40891	-6.8
635.42646	4.45
635.44401	2.6
635.46155	-1.3
635.4791	3.05
635.49664	6.8
635.51418	13.45
635.53171	4
635.54925	2.05
635.56678	0.75
635.58431	7.45
635.60184	19.35
635.61936	15.4
635.63688	-0.05
635.6544	5.7
635.67192	0.55
635.68943	1.05
635.70694	0.65
635.72445	3.9
635.74196	-6.95
635.75946	-3.2
635.77697	-0.65
635.79447	3.25
635.81196	10.75
635.82946	-2.5
635.84695	-7.15
635.86444	1.25
635.88193	7.1
635.89941	11.45
635.91689	4.4
635.93437	-1.15
635.95185	-4.3
635.96933	-1.85
635.9868	9.8
636.00427	28.15
636.02174	7.85
636.0392	-1.4
636.05666	18.15
636.07412	5.65
636.09158	3.3
636.10904	0.9
636.12649	0.55
636.14394	2.15
636.16139	14.35
636.17883	0.8
636.19628	0.4
636.21372	-6.6
636.23116	3
636.24859	-5.6
636.26602	-0.55
636.28345	8.35
636.30088	4.75
636.31831	-1.25
636.33573	-2.55
636.35315	3.25
636.37057	7.05
636.38799	0.9
636.4054	9.85
636.42281	13.1
636.44022	6.5
636.45763	-6.35
636.47503	-7.75
636.49243	-10.6
636.50983	-4.1
636.52723	0.25
636.54462	3.75
636.56201	2.4
636.5794	-5.7
636.59679	-5.75
636.61417	2.8
636.63155	-1.55
636.64893	17.65
636.66631	13.75
636.68368	-1.55
636.70106	-9.1
636.71843	-10.9
636.73579	-2.95
636.75316	4.5
636.77052	3.3
636.78788	5
636.80524	-2.2
636.82259	-8.1
636.83994	-4.45
636.85729	-6.5
636.87464	-7.65
636.89198	-2.95
636.90933	14
636.92667	9.05
636.944	-4.45
636.96134	-10.2
636.97867	-4.75
636.996	-2.15
637.01333	-2.15
637.03066	-2.05
637.04798	-10.6
637.0653	1.65
637.08262	2.1
637.09993	-4
637.11724	-6.8
637.13455	4.2
637.15186	10
637.16917	6.95
637.18647	4.5
637.20377	10.1
637.22107	5.9
637.23837	8.55
637.25566	25
637.27295	3.9
637.29024	5.1
637.30752	-6.8
637.32481	-2.95
637.34209	3.4
637.35937	14.25
637.37664	7.05
637.39392	4.5
637.41119	1.25
637.42846	4.55
637.44572	-5
637.46299	3.5
637.48025	22.35
637.49751	6
637.51476	-4.7
637.53202	8.25
637.54927	-1.5
637.56652	0.55
637.58376	2.2
637.60101	0.4
637.61825	6.25
637.63549	7.6
637.65273	2.1
637.66996	-1.85
637.68719	1.25
637.70442	1.85
637.72165	6.15
637.73887	7.2
637.7561	12.2
637.77332	5.65
637.79053	-0.45
637.80775	10.3
637.82496	3.7
637.84217	7.7
637.85938	1.2
637.87658	2.1
637.89378	0.85
637.91098	-2.95
637.92818	-5.2
637.94538	4.8
637.96257	11.45
637.97976	5.4
637.99695	2.05
638.01413	-9.1
638.03132	-4.75
638.0485	1.3
638.06567	-7
638.08285	1.55
638.10002	-2.25
638.11719	-3.05
638.13436	-1.6
638.15153	0.2
638.16869	-9
638.18585	-4.85
638.20301	-5.95
638.22016	-14.3
638.23732	-13.35
638.25447	-9.15
638.27162	-6.35
638.28876	-8.5
638.30591	-6.85
638.32305	5.15
638.34019	8.75
638.35732	8.25
638.37446	10.6
638.39159	-7.35
638.40872	-9.35
638.42584	1.05
638.44297	1.45
638.46009	-3.4
638.47721	5.45
638.49432	10.5
638.51144	4.9
638.52855	8.3
638.54566	-5.6
638.56276	-1.55
638.57987	3.95
638.59697	4.05
638.61407	-2.15
638.63117	0.7
638.64826	0.85
638.66535	0.3
638.68244	-0.35
638.69953	3.45
638.71661	6.65
638.7337	-0.8
638.75078	0.5
638.76785	3.4
638.78493	-0.85
638.802	-7.95
638.81907	-0.4
638.83614	5.05
638.8532	9.65
638.87026	-1.1
638.88732	-10.15
638.90438	-0.9
638.92144	7.75
638.93849	10.6
638.95554	13
638.97259	2.35
638.98963	4.35
639.00668	12.15
639.02372	7.55
639.04075	8.95
639.05779	8.35
639.07482	4.7
639.09185	10.15
639.10888	-11.3
639.12591	-13.4
639.14293	-3.9
639.15995	2
639.17697	17.55
639.19398	17.7
639.211	21.15
639.22801	15.25
639.24502	-0.45
639.26202	-2.95
639.27903	-4.05
639.29603	1.5
639.31303	13
639.33002	-1.2
639.34702	1.75
639.36401	3.35
639.381	0.05
639.39798	5.2
639.41497	6
639.43195	6.15
639.44893	-1.15
639.4659	3.3
639.48288	6.55
639.49985	8.1
639.51682	2.25
639.53379	-11.95
639.55075	-12.55
639.56771	-16.25
639.58467	-7.85
639.60163	-0.05
639.61858	2.3
639.63553	4
639.65248	6.55
639.66943	-7.5
639.68638	-1
639.70332	5.7
639.72026	6.5
639.73719	0.9
639.75413	8.05
639.77106	17.3
639.78799	29.15
639.80492	19.55
639.82184	4.05
639.83877	2.2
639.85569	4.5
639.8726	1.8
639.88952	9.3
639.90643	-0.9
639.92334	2.65
639.94025	3.3
639.95716	4.65
639.97406	2.75
639.99096	10.2
640.00786	3.3
640.02475	1.7
640.04165	1
640.05854	3.4
640.07542	0.95
640.09231	8.75
640.10919	4.75
640.12607	9.15
640.14295	-3.85
640.15983	-2.75
640.1767	0.85
640.19357	-4.5
640.21044	-2.05
640.22731	6.15
640.24417	9.7
640.26103	12.55
640.27789	13.85
640.29475	-0.05
640.3116	-8.95
640.32845	-3.5
640.3453	2.95
640.36215	-2.5
640.37899	1.3
640.39583	17.25
640.41267	22.7
640.42951	1.25
640.44634	-11.85
640.46317	-0.15
640.48	-3.35
640.49683	-7.8
640.51365	-2.75
640.53048	1.25
640.5473	1.75
640.56411	4.45
640.58093	15
640.59774	13.9
640.61455	-1.65
640.63136	-0.65
640.64816	-7.55
640.66496	-2.7
640.68176	7.55
640.69856	-3.05
640.71535	-1.3
640.73215	-1.15
640.74894	-3.15
640.76572	9.7
640.78251	12.5
640.79929	3
640.81607	1.75
640.83285	2.55
640.84963	6.2
640.8664	11.75
640.88317	21.15
640.89994	5.85
640.9167	3.9
640.93346	-4.4
640.95022	-4.45
640.96698	1.55
640.98374	-5.55
641.00049	-8.4
641.01724	-6.15
641.03399	-12.4
641.05074	-12.4
641.06748	-8
641.08422	7.35
641.10096	4.35
641.11769	12.15
641.13443	1
641.15116	3.1
641.16789	-0.85
641.18461	-2.8
641.20134	13.9
641.21806	11.1
641.23478	-3.4
641.25149	-0.9
641.26821	11.2
641.28492	2.25
641.30163	5.15
641.31833	-3.65
641.33504	-0.45
641.35174	-0.25
641.36844	5.25
641.38514	4.9
641.40183	3.25
641.41852	3.8
641.43521	6
641.4519	24.6
641.46858	12.6
641.48526	1.9
641.50194	3.15
641.51862	-5.9
641.53529	-4.25
641.55197	11.4
641.56864	13.35
641.5853	1.8
641.60197	1.15
641.61863	4.85
641.63529	-7.9
641.65195	-3.6
641.6686	6.55
641.68526	7.4
641.70191	8.75
641.71855	17.8
641.7352	16.4
641.75184	2
641.76848	-1
641.78512	-0.3
641.80175	-2.2
641.81839	11.7
641.83502	16.6
641.85164	9.95
641.86827	13.45
641.88489	4.75
641.90151	-5.25
641.91813	0.95
641.93475	9.35
641.95136	0.6
641.96797	-7.85
641.98458	-11.45
642.00119	3.3
642.01779	7.95
642.03439	8.6
642.05099	2.6
642.06758	-9.8
642.08418	0.1
642.10077	-0.15
642.11736	7.7
642.13394	2.7
642.15053	4.9
642.16711	-1.9
642.18369	-5.7
642.20026	4.45
642.21684	11.35
642.23341	11.45
642.24998	9.05
642.26654	15
642.28311	9.8
642.29967	1.3
642.31623	-10.75
642.33279	-1.35
642.34934	-4.25
642.36589	-12.9
642.38244	-12.15
642.39899	36.75
642.41553	87.65
642.43207	13.25
642.44861	-11.9
642.46515	-2.95
642.48169	5.25
642.49822	1.25
642.51475	3.1
642.53127	-4.4
642.5478	0.05
642.56432	7.8
642.58084	7.6
642.59736	5.8
642.61387	9.55
642.63039	12.9
642.6469	14.3
642.6634	21.85
642.67991	4.6
642.69641	2.1
642.71291	-2.6
642.72941	10.8
642.74591	13.35
642.7624	0.75
642.77889	0.45
642.79538	-5.35
642.81186	-6.95
642.82834	-10.75
642.84483	-6.5
642.8613	-0.75
642.87778	-8.6
642.89425	9.5
642.91072	36.55
642.92719	2.45
642.94366	2.4
642.96012	9.45
642.97658	4.35
642.99304	5.25
643.0095	6.1
643.02595	0.9
643.0424	-3.1
643.05885	5.8
643.0753	-6.45
643.09174	-8.65
643.10818	-5.8
643.12462	-6.75
643.14106	-6.95
643.15749	-5.1
643.17392	3.65
643.19035	23.9
643.20678	14.8
643.2232	4.05
643.23962	14.6
643.25604	5.1
643.27246	-4.85
643.28887	-1.4
643.30528	6.8
643.32169	15
643.3381	3.35
643.35451	5.55
643.37091	11.35
643.38731	5.4
643.4037	-2
643.4201	-0.25
643.43649	6.75
643.45288	15.95
643.46927	6.55
643.48565	3.5
643.50204	7.9
643.51842	6.2
643.53479	-7.4
643.55117	4.05
643.56754	1.75
643.58391	4.6
643.60028	0.4
643.61664	7.45
643.63301	7.05
643.64937	10.05
643.66572	7.4
643.68208	-1.55
643.69843	-0.55
643.71478	-5.55
643.73113	-0.7
643.74748	-0.65
643.76382	3.45
643.78016	-2.05
643.7965	4.5
643.81283	10
643.82917	12.45
643.8455	2.8
643.86183	14.6
643.87815	15.75
643.89448	13.55
643.9108	9.45
643.92712	5.85
643.94343	11.75
643.95974	-5.8
643.97606	-10.55
643.99236	3.75
644.00867	13.45
644.02497	4.3
644.04128	1.45
644.05758	7.7
644.07387	9.05
644.09017	3.45
644.10646	5.7
644.12275	3.15
644.13903	2.75
644.15532	0.3
644.1716	0.7
644.18788	17.35
644.20415	5.95
644.22043	6.1
644.2367	9.05
644.25297	3.5
644.26924	6.05
644.2855	5.55
644.30176	0.9
644.31802	-0
644.33428	11.15
644.35054	20.45
644.36679	5.35
644.38304	4.15
644.39928	2.65
644.41553	9.5
644.43177	-0.2
644.44801	-10.15
644.46425	-7.3
644.48048	3.75
644.49672	5.25
644.51295	7
644.52917	5.15
644.5454	10.55
644.56162	4.15
644.57784	7.6
644.59406	3.2
644.61028	2.3
644.62649	-0.4
644.6427	2.05
644.65891	-3.9
644.67511	-10.65
644.69132	-1.45
644.70752	5.4
644.72372	10.2
644.73991	5.25
644.7561	7.3
644.7723	15.1
644.78848	25.65
644.80467	24.95
644.82085	8.1
644.83703	7.55
644.85321	9.4
644.86939	6.1
644.88556	12.2
644.90173	18.25
644.9179	25.75
644.93407	23.4
644.95023	32.3
644.96639	14.9
644.98255	11.55
644.99871	5.5
645.01486	1.2
645.03102	11
645.04716	11.55
645.06331	12.7
645.07946	36.4
645.0956	75.05
645.11174	16.35
645.12787	19.1
645.14401	9.45
645.16014	11.25
645.17627	4.85
645.1924	7.15
645.20852	17.5
645.22464	9.15
645.24076	21.65
645.25688	30.05
645.27299	15.8
645.28911	12.9
645.30522	3.55
645.32132	6.05
645.33743	12.55
645.35353	10.35
645.36963	2.6
645.38573	6.3
645.40182	5.45
645.41792	-0.3
645.43401	-6
645.45009	0.85
645.46618	9.7
645.48226	0.9
645.49834	1.4
645.51442	-5.8
645.5305	-1.45
645.54657	1.8
645.56264	2
645.57871	-5
645.59477	2.45
645.61084	2
645.6269	11.1
645.64296	13.3
645.65901	8.5
645.67507	6.6
645.69112	2.75
645.70716	-0.3
645.72321	-1.8
645.73925	8
645.7553	4.2
645.77133	-6.65
645.78737	3.55
645.8034	14.8
645.81944	18.8
645.83546	2.55
645.85149	19.65
645.86751	6.05
645.88354	-4.8
645.89955	-4.7
645.91557	-1.5
645.93159	-8.6
645.9476	-1.15
645.96361	2.85
645.97961	6.4
645.99562	6.45
646.01162	10.85
646.02762	6.9
646.04361	3
646.05961	-1.95
646.0756	-0.95
646.09159	8.1
646.10758	-2.05
646.12356	5.7
646.13954	11.2
646.15552	7.95
646.1715	17.35
646.18748	11.55
646.20345	4.45
646.21942	-2.65
646.23539	15.45
646.25135	18.9
646.26731	3.95
646.28327	13.55
646.29923	5.9
646.31519	14
646.33114	18
646.34709	15.25
646.36304	-0.05
646.37898	-7.2
646.39493	-10.15
646.41087	-3.5
646.4268	-4.1
646.44274	-4.15
646.45867	-2.15
646.4746	8.65
646.49053	0.9
646.50646	-5.8
646.52238	-12.45
646.5383	-8.05
646.55422	-6.45
646.57014	-2.4
646.58605	-0.05
646.60196	7.05
646.61787	2.4
646.63377	3.7
646.64968	5.55
646.66558	2.85
646.68148	-3.85
646.69737	5.65
646.71327	-0.65
646.72916	-0.2
646.74505	3.55
646.76093	11.4
646.77682	8.3
646.7927	0.15
646.80858	4.4
646.82446	-6.55
646.84033	-0
646.8562	-2.4
646.87207	1.65
646.88794	6.75
646.9038	-4.55
646.91966	4
646.93552	2.7
646.95138	-3.4
646.96723	4.35
646.98309	11.55
646.99894	6.1
647.01478	4.9
647.03063	16.9
647.04647	2.4
647.06231	-5.35
647.07815	-4.2
647.09398	-2.95
647.10981	0.1
647.12564	-3.65
647.14147	1.8
647.1573	15.45
647.17312	5.7
647.18894	4.2
647.20476	-8.5
647.22057	-15.55
647.23638	0.05
647.25219	0.5
647.268	-5.3
647.28381	-4.6
647.29961	9.55
647.31541	4.5
647.33121	3.3
647.34701	8.5
647.3628	5.95
647.37859	7.6
647.39438	6.6
647.41016	6.2
647.42595	2.85
647.44173	5.3
647.45751	5.65
647.47328	1.5
647.48905	1.05
647.50483	12.05
647.52059	6.4
647.53636	1.95
647.55212	-8.1
647.56789	10.3
647.58364	39.4
647.5994	5.75
647.61515	0.45
647.63091	7.1
647.64665	5.4
647.6624	2.4
647.67814	-4.85
647.69389	-7.65
647.70963	-6.4
647.72536	-17.15
647.7411	-12.75
647.75683	-2.85
647.77256	3.7
647.78828	2.15
647.80401	-1.4
647.81973	2.25
647.83545	5.2
647.85117	2.7
647.86688	-0
647.88259	0.3
647.8983	2.9
647.91401	13.3
647.92971	13.75
647.94542	0.75
647.96112	2.15
647.97681	8.2
647.99251	2.55
648.0082	7.6
648.02389	9.4
648.03958	0.6
648.05526	0.65
648.07095	1.4
648.08663	2.55
648.1023	-10
648.11798	-7.6
648.13365	-9.45
648.14932	-0.4
648.16499	3.55
648.18066	-1.65
648.19632	-10.8
648.21198	-4
648.22764	-0.2
648.24329	5.4
648.25895	8.3
648.2746	-3.6
648.29025	1.3
648.30589	3.8
648.32153	1.95
648.33718	-4
648.35281	11.9
648.36845	31.9
648.38408	70.6
648.39971	8.15
648.41534	-3.45
648.43097	2
648.44659	5
648.46221	13.6
648.47783	9.85
648.49345	-6.85
648.50906	0.75
648.52467	7.35
648.54028	-4.15
648.55589	-2.55
648.57149	10.15
648.5871	2.85
648.6027	1.05
648.61829	6.75
648.63389	5.45
648.64948	8.5
648.66507	6.3
648.68065	-1.3
648.69624	3.1
648.71182	16.65
648.7274	20.5
648.74298	18.45
648.75855	21.25
648.77412	19.55
648.78969	-1.35
648.80526	-8.65
648.82083	1.6
648.83639	6.55
648.85195	-1.25
648.8675	1.2
648.88306	6
648.89861	0.1
648.91416	-7.1
648.92971	1.2
648.94526	16.25
648.9608	16.65
648.97634	8.8
648.99188	10.1
649.00741	8.55
649.02294	4.85
649.03847	4.35
649.054	-1.45
649.06953	5.4
649.08505	-3.5
649.10057	6.25
649.11609	-2
649.13161	5.7
649.14712	2.85
649.16263	-1.7
649.17814	-1.45
649.19364	4.7
649.20915	18.15
649.22465	19.45
649.24015	14.85
649.25564	20
649.27114	9.25
649.28663	2.95
649.30212	0.75
649.3176	1.95
649.33309	-7.65
649.34857	-0.35
649.36405	6.45
649.37952	11.55
649.395	11
649.41047	11.7
649.42594	7.45
649.4414	-1.75
649.45687	5.35
649.47233	-4.95
649.48779	3.3
649.50324	13.65
649.5187	14.3
649.53415	8.6
649.5496	10.25
649.56505	10.4
649.58049	10.85
649.59593	3
649.61137	3.75
649.62681	8.25
649.64224	0.25
649.65768	-2.1
649.67311	14.55
649.68853	19.85
649.70396	9.85
649.71938	10.95
649.7348	10.5
649.75022	21.15
649.76563	5.3
649.78105	1.3
649.79646	-5.35
649.81186	5.9
649.82727	11.3
649.84267	-0
649.85807	6.5
649.87347	-4.3
649.88886	-1.9
649.90426	4.65
649.91965	3.05
649.93504	-0.65
649.95042	12.15
649.9658	-0.75
649.98119	2.4
649.99656	6.9
650.01194	-1.65
650.02731	-0.55
650.04268	-5.2
650.05805	-5
650.07342	-3.4
650.08878	7.45
650.10414	9.35
650.1195	-2.85
650.13486	-4
650.15021	-0.9
650.16556	5.15
650.18091	6.3
650.19626	9.05
650.2116	9.2
650.22694	2.95
650.24228	11.55
650.25762	6.3
650.27295	2.75
650.28828	-0.7
650.30361	8.45
650.31894	1.1
650.33426	-4.5
650.34958	0.8
650.3649	22.7
650.38022	14.05
650.39553	-0
650.41085	3.85
650.42616	2.25
650.44146	4.15
650.45677	5.8
650.47207	8.85
650.48737	16.45
650.50267	-2.1
650.51796	-7.65
650.53325	1.7
650.54854	11.45
650.56383	8.2
650.57911	2.9
650.5944	3.75
650.60968	7.15
650.62495	8.35
650.64023	8.9
650.6555	-4.75
650.67077	-6.05
650.68604	-1.15
650.70131	7.55
650.71657	6.75
650.73183	10.25
650.74709	9.15
650.76234	5.2
650.77759	7.1
650.79285	10.55
650.80809	5.9
650.82334	1.85
650.83858	3.75
650.85382	4.6
650.86906	6.4
650.8843	20.2
650.89953	3.7
650.91476	0.4
650.92999	-1.6
650.94522	3.25
650.96044	6.75
650.97566	7.95
650.99088	0.8
651.00609	-0.7
651.02131	0.7
651.03652	2.5
651.05173	4.1
651.06693	-12.2
651.08214	-7
651.09734	-5.5
651.11254	-0.55
651.12773	-3.65
651.14293	4.35
651.15812	-2.95
651.17331	-1.2
651.1885	10.3
651.20368	-1.6
651.21886	-8.1
651.23404	6.8
651.24922	11.9
651.26439	4.25
651.27956	5.7
651.29473	-1.85
651.3099	13.65
651.32507	-8.3
651.34023	-0.9
651.35539	-3.1
651.37054	-9.3
651.3857	-15.45
651.40085	-1.2
651.416	6.25
651.43115	0.2
651.44629	-3.55
651.46144	-9.45
651.47658	3.5
651.49171	14.45
651.50685	10
651.52198	3.5
651.53711	-0.35
651.55224	-5.4
651.56736	3.2
651.58249	10.3
651.59761	8.65
651.61273	-10.75
651.62784	1.8
651.64295	3
651.65806	-4
651.67317	-1.05
651.68828	-2
651.70338	5.9
651.71848	13.6
651.73358	17.35
651.74868	-0.8
651.76377	2.3
651.77886	2.8
651.79395	-1.95
651.80904	-5.25
651.82412	8.1
651.8392	1.35
651.85428	6.6
651.86935	13.95
651.88443	12.05
651.8995	2.6
651.91457	-2.85
651.92963	3.65
651.9447	22.45
651.95976	12.3
651.97482	4.2
651.98988	4.15
652.00493	-3.5
652.01998	3.7
652.03503	15.55
652.05008	24.45
652.06512	58.15
652.08016	4.3
652.0952	1.1
652.11024	25.85
652.12527	10.6
652.14031	4.4
652.15534	5.6
652.17036	13.75
652.18539	3.35
652.20041	12.2
652.21543	9.35
652.23045	0.45
652.24546	3.6
652.26047	10.9
652.27548	10.65
652.29049	8.3
652.3055	1.6
652.3205	4.5
652.3355	2.6
652.3505	1.55
652.36549	8.35
652.38048	14.45
652.39547	11.6
652.41046	8.1
652.42545	19.45
652.44043	16.25
652.45541	3.7
652.47039	11.25
652.48536	2.9
652.50034	-7.9
652.51531	-10.95
652.53028	-0.4
652.54524	2
652.5602	0.15
652.57517	-10.25
652.59012	25.7
652.60508	71.75
652.62003	8.6
652.63498	-0.95
652.64993	-1.9
652.66488	-0.65
652.67982	7.55
652.69476	8.15
652.7097	-3.05
652.72464	-7.25
652.73957	3.15
652.7545	9.35
652.76943	20.6
652.78436	4.2
652.79928	7.3
652.8142	10.5
652.82912	6.65
652.84404	4.4
652.85895	-5.8
652.87387	3.5
652.88877	16.45
652.90368	17.25
652.91859	-4.6
652.93349	-2.6
652.94839	2.55
652.96328	4.25
652.97818	-3.05
652.99307	2.1
653.00796	10.1
653.02285	0.2
653.03773	3.9
653.05261	-0.3
653.06749	-2.8
653.08237	-4.25
653.09725	0.4
653.11212	4.3
653.12699	-0.35
653.14186	11.45
653.15672	19.35
653.17158	4.1
653.18644	11.25
653.2013	3.1
653.21616	7.4
653.23101	15
653.24586	3.15
653.26071	-5.65
653.27555	12.6
653.29039	15.85
653.30524	2.55
653.32007	2.6
653.33491	101.25
653.34974	243.75
653.36457	23.75
653.3794	-0.35
653.39423	-5.05
653.40905	-2.8
653.42387	1.55
653.43869	3.05
653.45351	-0.3
653.46832	-4.65
653.48313	-7.4
653.49794	-0.85
653.51274	8.15
653.52755	12.75
653.54235	1.65
653.55715	-8.7
653.57194	-1.1
653.58674	8.45
653.60153	9.6
653.61632	1.75
653.6311	-8.1
653.64589	-3.75
653.66067	11.95
653.67545	5.7
653.69023	-3.85
653.705	-3.75
653.71977	-5.1
653.73454	-4.2
653.74931	-3.35
653.76407	3.75
653.77883	4.55
653.79359	6.65
653.80835	2.55
653.8231	3.55
653.83786	8.85
653.85261	19.4
653.86735	10.75
653.8821	32.25
653.89684	8.5
653.91158	6.5
653.92632	17.4
653.94105	14.45
653.95579	11.35
653.97052	-3.9
653.98524	-4.75
653.99997	4.85
654.01469	6.35
654.02941	7.2
654.04413	12.95
654.05884	4.55
654.07356	14.9
654.08827	52.4
654.10297	98.75
654.11768	21
654.13238	20.45
654.14708	9.45
654.16178	-0.05
654.17648	4.3
654.19117	-7.7
654.20586	-7.95
654.22055	6.6
654.23524	9.85
654.24992	37.15
654.2646	57.15
654.27928	29.75
654.29395	19.75
654.30863	26.25
654.3233	28.7
654.33797	17.2
654.35263	12.25
654.3673	16.95
654.38196	14.5
654.39662	-3.3
654.41127	5.75
654.42593	13.2
654.44058	14.05
654.45523	1.4
654.46987	0.05
654.48452	12.5
654.49916	11.1
654.5138	12.3
654.52844	13.45
654.54307	13.95
654.5577	22.3
654.57233	9.55
654.58696	13.15
654.60158	11.5
654.6162	3.3
654.63082	3.45
654.64544	9.45
654.66005	6
654.67467	3.05
654.68928	11.4
654.70388	14.7
654.71849	15.8
654.73309	53.4
654.74769	110.8
654.76229	18.95
654.77688	18.6
654.79148	11.4
654.80607	3.05
654.82065	17.25
654.83524	19
654.84982	12.3
654.8644	8.4
654.87898	4.05
654.89355	9.65
654.90813	8.75
654.9227	7.95
654.93727	5.75
654.95183	9.15
654.96639	11.3
654.98095	16.1
654.99551	12.4
655.01007	21.75
655.02462	5.65
655.03917	4.2
655.05372	5.95
655.06827	10.4
655.08281	22.3
655.09735	23.25
655.11189	25
655.12643	20.3
655.14096	17.65
655.15549	22.5
655.17002	16.9
655.18454	17.6
655.19907	20.95
655.21359	31.9
655.22811	37.75
655.24262	33.7
655.25714	36.1
655.27165	43.4
655.28616	43
655.30067	46.15
655.31517	56.3
655.32967	66.4
655.34417	87.1
655.35867	136.35
655.37316	314.55
655.38765	1027.8
655.40214	3088.45
655.41663	6631.8
655.43111	9465.1
655.4456	9049.8
655.46008	6606.75
655.47455	4782.3
655.48903	3952.65
655.5035	3237.85
655.51797	2467.4
655.53244	1718
655.5469	1213.1
655.56136	1299.4
655.57582	2617
655.59028	5625.6
655.60474	8837.25
655.61919	9500.1
655.63364	7466.55
655.64809	5276.9
655.66253	4136.9
655.67697	3397.45
655.69141	2657.15
655.70585	1878
655.72029	1207.15
655.73472	705.15
655.74915	395.05
655.76358	232.65
655.778	147.85
655.79243	121.1
655.80685	86.2
655.82127	61.75
655.83568	50.95
655.8501	58.65
655.86451	38.25
655.87891	37.2
655.89332	28.6
655.90772	18.45
655.92212	15.6
655.93652	36.45
655.95092	26.2
655.96531	16.4
655.9797	12.15
655.99409	20.45
656.00848	14.65
656.02286	21.05
656.03724	21.4
656.05162	13
656.066	3.1
656.08037	6.05
656.09475	5.75
656.10911	6.25
656.12348	14.85
656.13784	17.1
656.15221	11.7
656.16657	26.4
656.18092	19.9
656.19528	21.15
656.20963	10.75
656.22398	6.25
656.23833	16.55
656.25267	20.4
656.26701	22.7
656.28135	3.95
656.29569	9.05
656.31002	15.45
656.32436	24.7
656.33869	24.7
656.35301	6.5
656.36734	10
656.38166	2.6
656.39598	-2.3
656.4103	-2.45
656.42461	2.35
656.43892	3.45
656.45323	-0.9
656.46754	5.7
656.48185	7.1
656.49615	6.9
656.51045	8.9
656.52475	9
656.53904	5.65
656.55334	0.75
656.56763	2.35
656.58192	3.9
656.5962	4.45
656.61048	1.25
656.62476	3.3
656.63904	7.45
656.65332	7.05
656.66759	3.65
656.68186	3.45
656.69613	3.7
656.7104	2.7
656.72466	11.25
656.73892	7.25
656.75318	13.75
656.76744	0.2
656.78169	7.1
656.79594	21.05
656.81019	31.15
656.82444	-3.25
656.83868	6.95
656.85292	7.05
656.86716	3.85
656.8814	8.1
656.89563	5.1
656.90986	-1.15
656.92409	3.6
656.93832	9.35
656.95254	8.95
656.96676	7.95
656.98098	16.9
656.9952	2.55
657.00941	4.8
657.02363	-6.95
657.03784	-3.95
657.05204	3.45
657.06625	17.85
657.08045	0.5
657.09465	6.9
657.10885	-5.05
657.12304	1.25
657.13723	1.85
657.15142	3.7
657.16561	-2.6
657.1798	-6.45
657.19398	-15.95
657.20816	-4.2
657.22234	-3.85
657.23651	-0.35
657.25068	1.85
657.26485	4.7
657.27902	1
657.29319	-6.15
657.30735	2
657.32151	-0.3
657.33567	9.2
657.34982	25.15
657.36398	14.65
657.37813	15.2
657.39227	-1
657.40642	12.35
657.42056	17
657.4347	4.7
657.44884	8.1
657.46298	5.4
657.47711	14.4
657.49124	21.4
657.50537	1.55
657.5195	2
657.53362	-1.65
657.54774	1.55
657.56186	17.35
657.57598	24.3
657.59009	7.7
657.6042	7.8
657.61831	6.8
657.63242	8.1
657.64652	7.75
657.66062	10.65
657.67472	12.2
657.68882	11.5
657.70291	4.5
657.717	6.85
657.73109	1.45
657.74518	11.4
657.75926	0.4
657.77335	-2.95
657.78742	1.9
657.8015	-4.85
657.81558	4.65
657.82965	7.5
657.84372	-2.75
657.85778	9.6
657.87185	1.25
657.88591	6.75
657.89997	2.7
657.91403	9.05
657.92808	14.9
657.94214	8.35
657.95618	6.3
657.97023	5.45
657.98428	10.75
657.99832	31.4
658.01236	9.2
658.0264	-10.5
658.04043	-0.95
658.05447	4.6
658.0685	-7.65
658.08252	-5.65
658.09655	1
658.11057	13.05
658.12459	14.25
658.13861	23.1
658.15263	8.4
658.16664	19.95
658.18065	10.15
658.19466	-0.9
658.20866	-6.35
658.22267	1.45
658.23667	11.65
658.25067	8.5
658.26466	10.05
658.27865	7.1
658.29265	2.15
658.30663	3.1
658.32062	0.95
658.3346	4.15
658.34858	5.45
658.36256	5
658.37654	2.45
658.39051	12
658.40448	13.05
658.41845	8.05
658.43242	5.6
658.44638	-2.25
658.46035	-2
658.4743	5.5
658.48826	12.2
658.50221	19.05
658.51617	7.35
658.53012	-2.45
658.54406	-2
658.55801	7.6
658.57195	-1.1
658.58589	14.05
658.59983	13.1
658.61376	-3.7
658.62769	-1.15
658.64162	10.15
658.65555	13.55
658.66947	3.5
658.6834	27
658.69731	71.3
658.71123	15.7
658.72515	12.9
658.73906	7.35
658.75297	8.05
658.76688	4.4
658.78078	14.05
658.79468	4.6
658.80858	-6.1
658.82248	-0.55
658.83638	4.25
658.85027	11.75
658.86416	8.95
658.87805	6.15
658.89193	-2.85
658.90582	2.2
658.9197	1.9
658.93357	3.75
658.94745	3.3
658.96132	-4.5
658.97519	6.9
658.98906	-7.25
659.00293	-6.2
659.01679	-4.2
659.03065	-0
659.04451	9.35
659.05837	2.05
659.07222	0.35
659.08607	2.2
659.09992	10.1
659.11377	7.05
659.12761	-2.65
659.14145	5.05
659.15529	9.7
659.16913	10.25
659.18296	9.15
659.19679	-1.2
659.21062	6.95
659.22445	6.7
659.23827	30.1
659.25209	17.5
659.26591	9.3
659.27973	16.5
659.29354	2
659.30735	0.15
659.32116	10.05
659.33497	8
659.34877	-8.95
659.36258	-0.95
659.37637	16.15
659.39017	9.75
659.40397	-5
659.41776	-2
659.43155	4.25
659.44533	7.9
659.45912	17
659.4729	-0.4
659.48668	6.25
659.50046	2.5
659.51423	1.8
659.52801	9.5
659.54178	14.65
659.55554	-1.35
659.56931	3.75
659.58307	5.65
659.59683	5.3
659.61059	4.55
659.62434	31.9
659.6381	64.1
659.65185	6
659.6656	-3.2
659.67934	1.05
659.69308	2.7
659.70682	3.05
659.72056	7.5
659.7343	9.65
659.74803	-0.35
659.76176	-0.6
659.77549	2.35
659.78922	15.25
659.80294	-6.25
659.81666	-3.9
659.83038	8.5
659.84409	6.9
659.85781	-3.2
659.87152	0.7
659.88523	0.25
659.89893	-0.85
659.91264	8.85
659.92634	17.65
659.94004	10
659.95373	6.25
659.96743	7.4
659.98112	11.1
659.99481	9.85
660.00849	4.45
660.02218	11.8
660.03586	13.55
660.04954	-3.85
660.06322	5.05
660.07689	19.8
660.09056	24.4
660.10423	-8.05
660.1179	1
660.13156	16.45
660.14522	8.9
660.15888	6.15
660.17254	1.1
660.1862	8.25
660.19985	2.6
660.2135	-4.6
660.22714	-1.25
660.24079	1.75
660.25443	-1
660.26807	1.8
660.28171	9.05
660.29534	11.35
660.30898	4.3
660.32261	-3.95
660.33623	-10.4
660.34986	-10.75
660.36348	7.4
660.3771	6.15
660.39072	19.05
660.40433	17.05
660.41795	15.8
660.43156	4.35
660.44517	7.05
660.45877	7.8
660.47237	3.95
660.48598	4.4
660.49957	0.25
660.51317	1.4
660.52676	1.25
660.54035	11.95
660.55394	17.7
660.56753	9
660.58111	14.1
660.59469	13.35
660.60827	-3.25
660.62185	4
660.63542	14.55
660.64899	15.2
660.66256	16.8
660.67613	13.15
660.68969	17.9
660.70325	12.85
660.71681	-0.45
660.73037	-6.25
660.74392	0.15
660.75747	1.45
660.77102	3.05
660.78457	-2.15
660.79811	10.15
660.81165	16.9
660.82519	10.5
660.83873	1.6
660.85226	10.3
660.86579	14.05
660.87932	7.6
660.89285	-0.1
660.90637	16.7
660.9199	13.25
660.93342	6.45
660.94693	11.3
660.96045	-1.9
660.97396	9.1
660.98747	15.15
661.00098	4.35
661.01448	-3.7
661.02798	1.5
661.04148	4.8
661.05498	16.55
661.06848	5.5
661.08197	-1
661.09546	20.05
661.10895	44.3
661.12243	12.1
661.13591	5.95
661.14939	-7.05
661.16287	0.35
661.17635	18.4
661.18982	13.35
661.20329	23.55
661.21676	22.05
661.23022	6.1
661.24369	3.7
661.25715	5.5
661.27061	4.3
661.28406	16.3
661.29752	-9.05
661.31097	-3.95
661.32441	8.75
661.33786	2.7
661.3513	0.55
661.36474	2.7
661.37818	7.1
661.39162	4.65
661.40505	44.9
661.41848	108.25
661.43191	15.25
661.44534	6.4
661.45876	8.95
661.47218	14.6
661.4856	11.6
661.49902	12
661.51243	1.85
661.52585	13.4
661.53925	8.6
661.55266	6.6
661.56606	2.9
661.57947	8.05
661.59287	-3.8
661.60626	1.5
661.61966	11.65
661.63305	8.3
661.64644	9
661.65983	8.2
661.67321	9.75
661.68659	6.75
661.69997	20.35
661.71335	9.1
661.72672	22.55
661.7401	46.4
661.75347	5.65
661.76683	7.65
661.7802	18.85
661.79356	20.3
661.80692	-2.4
661.82028	4.9
661.83363	4.25
661.84698	0.3
661.86033	9.4
661.87368	13.4
661.88703	11.05
661.90037	3.3
661.91371	2.05
661.92705	-1.45
661.94038	2.35
661.95372	4.5
661.96705	20.75
661.98038	27.75
661.9937	7.7
662.00702	5.5
662.02034	15.25
662.03366	7.15
662.04698	5.85
662.06029	-2.05
662.0736	-2.25
662.08691	-0.35
662.10022	1.5
662.11352	8.4
662.12682	10.15
662.14012	-7.3
662.15342	2.35
662.16671	13.65
662.18	0.6
662.19329	-0.85
662.20658	-0.35
662.21986	1.35
662.23314	4.8
662.24642	-1.85
662.2597	9.7
662.27297	3.25
662.28624	-0.3
662.29951	7.35
662.31278	0.2
662.32604	-4.7
662.3393	3.35
662.35256	3.1
662.36582	-0.4
662.37907	-0.35
662.39233	1.5
662.40558	7.15
662.41882	10.65
662.43207	13.2
662.44531	1.35
662.45855	-3.45
662.47179	-1.2
662.48502	2.6
662.49825	0.65
662.51148	11.25
662.52471	10.3
662.53794	0.5
662.55116	10.65
662.56438	7.25
662.5776	5.35
662.59081	11.7
662.60402	15.95
662.61723	7.8
662.63044	11.3
662.64365	4.8
662.65685	3.6
662.67005	12.2
662.68325	19.65
662.69644	2.8
662.70964	4.25
662.72283	9.45
662.73601	10.95
662.7492	12.8
662.76238	7.4
662.77556	3.9
662.78874	12.95
662.80192	14.55
662.81509	20.45
662.82826	10.9
662.84143	-2.7
662.8546	2.85
662.86776	4.8
662.88092	-4.7
662.89408	-4.1
662.90724	7.45
662.92039	26.4
662.93354	5
662.94669	1.55
662.95984	8.15
662.97298	4.9
662.98612	-4.75
662.99926	-6.9
663.0124	3.6
663.02553	5.7
663.03866	7.2
663.05179	3.45
663.06492	7.9
663.07804	9.95
663.09116	16.35
663.10428	4.55
663.1174	-1.65
663.13052	5.65
663.14363	9.05
663.15674	-2.4
663.16984	5.2
663.18295	14.35
663.19605	16.7
663.20915	14.95
663.22225	13
663.23534	12.65
663.24843	-1.2
663.26152	-1.3
663.27461	-1.8
663.2877	4.85
663.30078	4.85
663.31386	6.85
663.32694	8.2
663.34001	21.4
663.35308	18.05
663.36615	1.65
663.37922	13.8
663.39229	21.95
663.40535	-5.85
663.41841	-7.8
663.43147	0.85
663.44452	8.75
663.45758	10.65
663.47063	10.25
663.48368	7.9
663.49672	7.95
663.50977	-4.25
663.52281	2.55
663.53584	-1.25
663.54888	-9.05
663.56191	-7.9
663.57494	-6.1
663.58797	-6.2
663.601	0.15
663.61402	4.15
663.62704	8.2
663.64006	2.95
663.65308	0.25
663.66609	-5.65
663.6791	-4.7
663.69211	18.05
663.70512	21.7
663.71812	1.05
663.73112	-2.15
663.74412	-0.35
663.75712	12.75
663.77011	9.05
663.78311	6.55
663.79609	14.95
663.80908	13.5
663.82207	4.15
663.83505	-7.8
663.84803	-0.4
663.861	2.35
663.87398	6.6
663.88695	2.8
663.89992	0.4
663.91289	1.65
663.92585	3.1
663.93881	-1.3
663.95177	12.05
663.96473	27.05
663.97769	8.25
663.99064	-4.45
664.00359	3.25
664.01654	14.15
664.02948	10.15
664.04242	9.35
664.05536	6.45
664.0683	4.85
664.08124	7.7
664.09417	12.7
664.1071	13.15
664.12003	12.65
664.13295	0.25
664.14588	2.1
664.1588	2.4
664.17171	2
664.18463	9.2
664.19754	2.85
664.21045	10.8
664.22336	4.65
664.23627	9
664.24917	8.1
664.26207	4.25
664.27497	-0.25
664.28787	9.1
664.30076	16
664.31365	3.45
664.32654	5.6
664.33942	-2.4
664.35231	1.2
664.36519	0.55
664.37807	1.95
664.39094	10.4
664.40382	13.7
664.41669	13.45
664.42956	9.3
664.44242	6.7
664.45529	5.5
664.46815	3.95
664.48101	6.1
664.49387	13.35
664.50672	-7.4
664.51957	-2.6
664.53242	7.15
664.54527	5.4
664.55811	7.55
664.57095	4.6
664.58379	4.9
664.59663	-2.1
664.60946	4.75
664.6223	8.8
664.63513	9.65
664.64795	11.35
664.66078	9.15
664.6736	2.15
664.68642	1.7
664.69924	2.1
664.71205	4.8
664.72486	-4.6
664.73767	2.5
664.75048	15.55
664.76329	10.9
664.77609	3.65
664.78889	19
664.80169	8.95
664.81448	0.15
664.82728	0.85
664.84007	7.35
664.85285	-0.2
664.86564	6.5
664.87842	-3.4
664.8912	-4.35
664.90398	11.4
664.91676	13.65
664.92953	2.3
664.9423	9.3
664.95507	13.9
664.96783	9.85
664.9806	13.75
664.99336	5.55
665.00612	5.1
665.01887	12.1
665.03163	6.45
665.04438	8.7
665.05713	19.45
665.06987	1.25
665.08262	-7.1
665.09536	-2.2
665.1081	4.55
665.12083	1.9
665.13357	-1.4
665.1463	16.45
665.15903	15.2
665.17175	17.25
665.18448	4.2
665.1972	7.2
665.20992	4.55
665.22263	7.55
665.23535	27.3
665.24806	50.15
665.26077	5.9
665.27348	-0.65
665.28618	14.25
665.29888	10.85
665.31158	-0.55
665.32428	15.65
665.33697	9
665.34967	5.1
665.36236	2.05
665.37504	6.5
665.38773	7
665.40041	15.3
665.41309	10.2
665.42577	8.5
665.43844	-2.7
665.45111	1.65
665.46378	2.45
665.47645	6.1
665.48912	10.3
665.50178	9
665.51444	-0.25
665.5271	8
665.53975	0.95
665.55241	-2.9
665.56506	0.15
665.5777	0.85
665.59035	3.6
665.60299	8.45
665.61563	13.85
665.62827	15.2
665.64091	4.75
665.65354	-5.1
665.66617	0.55
665.6788	7.2
665.69142	15.85
665.70405	11.25
665.71667	-0.55
665.72929	-1.45
665.7419	4
665.75452	-5.9
665.76713	-0.15
665.77974	4.2
665.79234	20.15
665.80495	11
665.81755	9.95
665.83015	-3.4
665.84274	10.2
665.85534	0.6
665.86793	2.7
665.88052	1.65
665.8931	10.35
665.90569	4.2
665.91827	2.05
665.93085	-8.95
665.94343	8.4
665.956	6.85
665.96857	-4.1
665.98114	-4.4
665.99371	-15.45
666.00627	-13.85
666.01883	-2.5
666.03139	9.7
666.04395	8.6
666.05651	15.05
666.06906	20
666.08161	11.1
666.09415	7.5
666.1067	7.3
666.11924	8.25
666.13178	1.2
666.14432	-0.1
666.15685	-4.15
666.16939	-2.1
666.18192	0.85
666.19444	3.05
666.20697	11.3
666.21949	17.55
666.23201	14.65
666.24453	3.2
666.25705	12.65
666.26956	5.9
666.28207	5.4
666.29458	-0.15
666.30708	-2.25
666.31959	0.95
666.33209	10.4
666.34458	4.55
666.35708	6
666.36957	14.25
666.38206	12.45
666.39455	12.75
666.40704	5.4
666.41952	9.45
666.432	7.55
666.44448	9.6
666.45696	-3.1
666.46943	-0.2
666.4819	4.75
666.49437	10.2
666.50684	10.9
666.5193	-2.4
666.53176	-11
666.54422	-4.75
666.55668	12.05
666.56913	0.45
666.58158	4.35
666.59403	11.85
666.60648	6.9
666.61892	5.1
666.63136	12.05
666.6438	11.8
666.65624	4.25
666.66867	14.65
666.68111	13.05
666.69354	8.1
666.70596	9.55
666.71839	1.75
666.73081	4
666.74323	-0.5
666.75565	13.25
666.76806	9
666.78047	-4.05
666.79288	0.4
666.80529	7.3
666.81769	4.15
666.8301	6.25
666.8425	8.45
666.85489	-4.65
666.86729	3.2
666.87968	-6.05
666.89207	-2.55
666.90446	6.45
666.91684	7.65
666.92923	-2.05
666.94161	17.75
666.95399	37.9
666.96636	7.65
666.97873	7.4
666.9911	-6.4
667.00347	5.85
667.01584	13.5
667.0282	11.3
667.04056	-7.3
667.05292	3.1
667.06528	7.35
667.07763	-4
667.08998	6.95
667.10233	11.4
667.11467	-2.9
667.12702	-7.45
667.13936	-2.05
667.1517	13.05
667.16403	5.5
667.17637	6.05
667.1887	-6.9
667.20103	-6.85
667.21335	-2.65
667.22568	0.7
667.238	4.8
667.25032	4.6
667.26263	14.95
667.27495	1.8
667.28726	7.4
667.29957	19.6
667.31188	13.5
667.32418	4.85
667.33648	2.8
667.34878	13.65
667.36108	4
667.37337	-10.2
667.38566	-3.55
667.39795	4.15
667.41024	3.95
667.42252	20.75
667.43481	12.6
667.44709	2
667.45936	5.05
667.47164	12.85
667.48391	8.6
667.49618	-5.55
667.50845	-5.4
667.52071	6.2
667.53297	8.95
667.54523	6.9
667.55749	5.3
667.56975	4.65
667.582	-3
667.59425	5.35
667.6065	22.4
667.61874	8.7
667.63099	17.25
667.64323	15.85
667.65546	-3
667.6677	2.1
667.67993	1.8
667.69216	4.5
667.70439	-0.3
667.71662	3.3
667.72884	9.2
667.74106	4.8
667.75328	4.9
667.76549	4.6
667.77771	2.1
667.78992	2.45
667.80213	4
667.81433	-4.4
667.82654	6.15
667.83874	6.7
667.85094	-9.95
667.86313	-11.85
667.87533	-7.55
667.88752	-2.3
667.89971	1.95
667.91189	0.7
667.92408	-6.05
667.93626	1.5
667.94844	7.3
667.96061	11.2
667.97279	0.5
667.98496	-0.15
667.99713	-1.6
668.0093	2.15
668.02146	13.8
668.03362	9.95
668.04578	-0.2
668.05794	-7.9
668.07009	0.25
668.08224	6.8
668.09439	21.6
668.10654	12.8
668.11868	11.5
668.13083	4.25
668.14297	3.2
668.1551	7
668.16724	7.2
668.17937	9.15
668.1915	-1.15
668.20363	4.05
668.21575	3.75
668.22788	-1.55
668.24	5.6
668.25211	13.55
668.26423	17.1
668.27634	0.15
668.28845	2.35
668.30056	1.45
668.31266	-2.2
668.32477	1.55
668.33687	-3.75
668.34897	-5.05
668.36106	3.6
668.37315	13.25
668.38524	4.95
668.39733	3
668.40942	-9.5
668.4215	0.55
668.43358	-0.4
668.44566	2.2
668.45774	5.4
668.46981	-3.55
668.48188	0.55
668.49395	8.6
668.50602	12.15
668.51808	5.1
668.53014	5.75
668.5422	1.05
668.55425	2.55
668.56631	8.65
668.57836	1.7
668.59041	9.95
668.60246	1.5
668.6145	-4.9
668.62654	-3.05
668.63858	2.65
668.65062	3.5
668.66265	11.5
668.67468	-0.8
668.68671	1.4
668.69874	18.65
668.71076	8.1
668.72278	3.5
668.7348	3.35
668.74682	2
668.75883	0.65
668.77085	-6.65
668.78286	-9.3
668.79486	-0.35
668.80687	8.35
668.81887	4.25
668.83087	6.9
668.84287	-2.95
668.85486	9.4
668.86685	-10.25
668.87884	-6.55
668.89083	7.45
668.90282	8.95
668.9148	1.85
668.92678	-3.1
668.93876	2.3
668.95073	5.1
668.9627	1.9
668.97468	2.45
668.98664	8.9
668.99861	9.2
669.01057	8.75
669.02253	5.85
669.03449	7.55
669.04645	-0.8
669.0584	2.2
669.07035	2.65
669.0823	-1.3
669.09424	-9.95
669.10619	-8.4
669.11813	5.3
669.13007	9.95
669.142	10.9
669.15393	14.7
669.16587	6.25
669.17779	-0.8
669.18972	-4.45
669.20164	-4.3
669.21356	1.25
669.22548	4.25
669.2374	0.1
669.24931	-0.1
669.26123	-7.4
669.27313	4.2
669.28504	10.9
669.29694	-1.9
669.30885	3.1
669.32074	5.65
669.33264	14.05
669.34454	1.65
669.35643	-4.5
669.36832	-8.55
669.3802	-1.2
669.39209	-8.3
669.40397	0.15
669.41585	-1.55
669.42773	-4.75
669.4396	-10.6
669.45147	-11.4
669.46334	-5.65
669.47521	1.45
669.48707	-4.75
669.49894	-3.85
669.5108	6.95
669.52265	0.65
669.53451	6
669.54636	-2.5
669.55821	5.25
669.57006	1.15
669.5819	-9.45
669.59375	-4.15
669.60559	3.15
669.61742	2.95
669.62926	-5
669.64109	-4.1
669.65292	4.25
669.66475	2.85
669.67658	-2.25
669.6884	-1.9
669.70022	-0
669.71204	12.2
669.72385	3.15
669.73567	1.4
669.74748	-0.45
669.75928	1.35
669.77109	4.15
669.78289	-0.45
669.79469	-0.45
669.80649	-2.75
669.81829	-4.05
669.83008	6.5
669.84187	0.25
669.85366	-5.35
669.86545	-1
669.87723	7.05
669.88901	11.05
669.90079	10.15
669.91257	3.35
669.92434	17.15
669.93611	22.35
669.94788	14.85
669.95965	9.5
669.97141	-2.15
669.98317	1.75
669.99493	7.1
670.00669	1.2
670.01844	7.9
670.0302	8.8
670.04194	1.6
670.05369	13.8
670.06544	-4.25
670.07718	0.95
670.08892	9.25
670.10065	4.05
670.11239	1.65
670.12412	5
670.13585	4.65
670.14758	-0.8
670.1593	-2.95
670.17103	6.9
670.18275	19.1
670.19446	2.4
670.20618	3.6
670.21789	5
670.2296	7.05
670.24131	-1.4
670.25301	11.6
670.26472	18.35
670.27642	12.55
670.28811	1.75
670.29981	4.25
670.3115	0.65
670.32319	-0.9
670.33488	-5.75
670.34656	-3.95
670.35825	11.8
670.36993	10.4
670.38161	1.75
670.39328	-2.6
670.40496	3.1
670.41663	-1.05
670.42829	8.1
670.43996	5.35
670.45162	3.7
670.46328	-5.45
670.47494	-8.35
670.4866	-2.3
670.49825	8
670.5099	4.4
670.52155	3.35
670.5332	11.3
670.54484	3.4
670.55648	-0.1
670.56812	12.5
670.57976	2.25
670.59139	-4.05
670.60302	0.05
670.61465	4.7
670.62628	0.1
670.6379	-4.5
670.64952	5.2
670.66114	-1.7
670.67276	-10.5
670.68438	0.65
670.69599	8.05
670.7076	2.95
670.7192	7.15
670.73081	18
670.74241	16.85
670.75401	5.15
670.76561	8.1
670.7772	9
670.78879	-0.3
670.80038	-2.4
670.81197	-4.15
670.82355	0.6
670.83514	6.35
670.84672	-1.1
670.85829	-5.1
670.86987	-4.85
670.88144	-1.7
670.89301	-10.25
670.90458	-9.9
670.91614	-7.8
670.92771	1.35
670.93927	6.65
670.95083	7
670.96238	3.7
670.97393	-1.85
670.98548	-2.5
670.99703	-6.45
671.00858	-5.55
671.02012	-0.6
671.03166	-5.5
671.0432	-3.5
671.05473	3.85
671.06627	4.3
671.0778	1.1
671.08933	0.4
671.10085	6.9
671.11238	10.35
671.1239	7.95
671.13542	10.75
671.14693	3.95
671.15845	-1.9
671.16996	7.7
671.18147	14.85
671.19297	9.9
671.20448	13.6
671.21598	1.4
671.22748	-1.25
671.23897	-1.25
671.25047	-2.45
671.26196	0.9
671.27345	-2.05
671.28493	-3.5
671.29642	-2.35
671.3079	-0.55
671.31938	-3.2
671.33085	-5.75
671.34233	5.8
671.3538	14
671.36527	2.7
671.37674	-12.45
671.3882	-11.35
671.39966	-5.7
671.41112	-0.15
671.42258	-4.75
671.43404	6
671.44549	8.2
671.45694	-0.35
671.46838	10.05
671.47983	10.5
671.49127	-0.15
671.50271	11.1
671.51415	4.5
671.52558	2.45
671.53702	7.3
671.54845	12.4
671.55987	4.35
671.5713	3.5
671.58272	2.25
671.59414	9.1
671.60556	25.65
671.61698	17.35
671.62839	1
671.6398	3.55
671.65121	0.15
671.66261	-2.7
671.67402	-7.15
671.68542	-1.5
671.69681	-8.25
671.70821	-9.45
671.7196	-1.9
671.73099	-5
671.74238	2.3
671.75377	0.9
671.76515	1.1
671.77653	-3.55
671.78791	2.85
671.79929	13.25
671.81066	10.45
671.82203	12.95
671.8334	-0.95
671.84477	2.3
671.85613	7.1
671.86749	5.65
671.87885	12.7
671.89021	27.3
671.90156	5.65
671.91291	-8.1
671.92426	-9.95
671.93561	-1.2
671.94695	-1.1
671.9583	0.85
671.96963	12.25
671.98097	7.2
671.99231	1.55
672.00364	-12.25
672.01497	4.55
672.02629	1.4
672.03762	-0.8
672.04894	-0.25
672.06026	-7.05
672.07158	-10.6
672.08289	-4.2
672.0942	-3
672.10551	14.25
672.11682	27.15
672.12813	13.1
672.13943	1.4
672.15073	-1.7
672.16203	-0.1
672.17332	-1.45
672.18461	-0.9
672.1959	9.75
672.20719	13.3
672.21848	15.45
672.22976	13.65
672.24104	9.8
672.25232	6.15
672.26359	3.3
672.27487	0.7
672.28614	10.2
672.29741	9.55
672.30867	1.05
672.31993	0.35
672.33119	4.3
672.34245	-1.1
672.35371	-7.5
672.36496	-1.1
672.37621	4.1
672.38746	-4.25
672.39871	-1.25
672.40995	-1.8
672.42119	9.85
672.43243	17.85
672.44367	14.3
672.4549	-0.85
672.46613	9.05
672.47736	8.3
672.48859	14.6
672.49981	8.4
672.51103	-1.15
672.52225	5.35
672.53347	4.35
672.54468	-1.5
672.55589	10
672.5671	3
672.57831	0.35
672.58951	11.25
672.60072	6.65
672.61191	0.85
672.62311	1.5
672.63431	4.4
672.6455	8.6
672.65669	3.25
672.66787	-4.25
672.67906	-3.1
672.69024	-2.4
672.70142	-4.7
672.7126	1.85
672.72377	-5.55
672.73494	-2.25
672.74611	2.05
672.75728	-1.55
672.76845	-0.15
672.77961	2.3
672.79077	0.1
672.80193	-4.1
672.81308	6.15
672.82423	10
672.83539	12.45
672.84653	3.35
672.85768	4.05
672.86882	5.3
672.87996	6.85
672.8911	0.2
672.90223	6.55
672.91337	3.15
672.9245	-0.55
672.93563	-1.45
672.94675	6.2
672.95788	11.45
672.969	-2.45
672.98011	3.3
672.99123	9.05
673.00234	4
673.01345	0.6
673.02456	-6.2
673.03567	-3.4
673.04677	7.7
673.05787	-1.25
673.06897	-1.3
673.08007	-0.7
673.09116	-0.4
673.10225	-9.6
673.11334	1.35
673.12443	14.1
673.13551	15.3
673.14659	7.5
673.15767	3.7
673.16875	5.5
673.17982	1.35
673.1909	-0.75
673.20196	-0.15
673.21303	-1.25
673.2241	5.9
673.23516	8.05
673.24622	2.45
673.25727	7.35
673.26833	5
673.27938	7.9
673.29043	8.6
673.30148	16.1
673.31252	7.3
673.32356	4.9
673.3346	-0.95
673.34564	2.75
673.35668	-0.55
673.36771	-6.5
673.37874	1.45
673.38977	10.35
673.40079	13
673.41181	2.75
673.42283	6.9
673.43385	0.85
673.44487	11.4
673.45588	0.85
673.46689	-5.4
673.4779	9.75
673.4889	15.55
673.4999	5.7
673.51091	0.15
673.5219	7.9
673.5329	19.5
673.54389	11.55
673.55488	-4.3
673.56587	9.75
673.57686	10.3
673.58784	2.2
673.59882	12.4
673.6098	5.35
673.62077	15.4
673.63175	34.15
673.64272	13.15
673.65369	-0.9
673.66465	3.05
673.67562	0.15
673.68658	9.25
673.69754	0.25
673.70849	4.9
673.71945	9.1
673.7304	14.4
673.74135	23.55
673.75229	19.7
673.76324	22.65
673.77418	4.25
673.78512	6.25
673.79605	2.8
673.80699	10.75
673.81792	5.9
673.82885	12.2
673.83978	18.8
673.8507	16.05
673.86162	5.75
673.87254	0.45
673.88346	9
673.89437	8.65
673.90529	9.4
673.9162	17.6
673.9271	9
673.93801	10.6
673.94891	-3.3
673.95981	2.2
673.97071	4.2
673.9816	5.55
673.99249	4
674.00338	8
674.01427	3.75
674.02516	-0.5
674.03604	-5.95
674.04692	-1.7
674.0578	4.45
674.06867	6
674.07954	6.55
674.09042	24.3
674.10128	-0.75
674.11215	-7.2
674.12301	7.85
674.13387	8.6
674.14473	-1.6
674.15559	-0.9
674.16644	0.85
674.17729	-4.85
674.18814	-1.85
674.19898	2.5
674.20983	-4.4
674.22067	-1.65
674.23151	-0.05
674.24234	-3.95
674.25318	3
674.26401	17.85
674.27483	9.3
674.28566	-4.65
674.29648	-5.05
674.30731	-5.55
674.31812	-3.4
674.32894	-0.15
674.33975	7.55
674.35057	3.5
674.36137	1.05
674.37218	7.8
674.38299	-7.35
674.39379	-8.65
674.40459	11.2
674.41538	7.1
674.42618	0.5
674.43697	-1.25
674.44776	-3.15
674.45854	2.85
674.46933	9.95
674.48011	4.6
674.49089	-3.95
674.50167	-6.75
674.51244	-2.15
674.52321	-4.5
674.53398	-16.8
674.54475	-10.55
674.55552	1.3
674.56628	0.35
674.57704	0.05
674.5878	3.7
674.59855	0.45
674.6093	3.35
674.62005	6.65
674.6308	8.5
674.64155	-0.55
674.65229	0.05
674.66303	6.7
674.67377	14.9
674.6845	12.65
674.69523	19.7
674.70596	12.95
674.71669	4.05
674.72742	-2.5
674.73814	-5.45
674.74886	1.1
674.75958	-1.65
674.77029	4.55
674.78101	-4
674.79172	8.6
674.80243	8.45
674.81313	6.4
674.82384	18.5
674.83454	4.95
674.84524	-5.35
674.85593	1.1
674.86663	2.8
674.87732	-5.2
674.888	0.6
674.89869	4.7
674.90937	8.1
674.92006	12.5
674.93073	9.55
674.94141	3.75
674.95208	7.15
674.96276	18.55
674.97343	14
674.98409	13.3
674.99476	13.45
675.00542	-2.2
675.01608	-1.95
675.02673	-1.85
675.03739	-0.3
675.04804	2.6
675.05869	13.55
675.06934	12.7
675.07998	19.55
675.09062	-5.45
675.10126	-5.75
675.1119	-2.3
675.12253	11.85
675.13317	12.7
675.1438	8.7
675.15442	2.9
675.16505	-1.9
675.17567	7.75
675.18629	17.85
675.19691	12.1
675.20752	8.2
675.21813	5.15
675.22874	5.05
675.23935	11.6
675.24996	8.75
675.26056	14.85
675.27116	8.25
675.28176	7.5
675.29235	6
675.30295	5.25
675.31354	1.6
675.32412	-0.65
675.33471	-7.8
675.34529	-5.05
675.35587	-3.85
675.36645	-12.3
675.37703	-8.55
675.3876	-0.9
675.39817	2
675.40874	4
675.41931	5.7
675.42987	14.6
675.44043	10.45
675.45099	2.05
675.46154	10.2
675.4721	9.25
675.48265	12.7
675.4932	14.3
675.50374	8.75
675.51429	2.55
675.52483	3.05
675.53537	-5.9
675.5459	1.25
675.55644	9.45
675.56697	4.25
675.5775	3.25
675.58803	-2.4
675.59855	1.3
675.60907	-1.35
675.61959	-1.9
675.63011	2.7
675.64062	-4.5
675.65113	-0.75
675.66164	10.55
675.67215	-3.1
675.68265	4.55
675.69316	5
675.70366	0.05
675.71415	12.9
675.72465	20.5
675.73514	10.6
675.74563	17.25
675.75612	-2.05
675.7666	0.55
675.77708	5.55
675.78756	6.2
675.79804	0.15
675.80852	13.45
675.81899	23.65
675.82946	9.4
675.83993	6.05
675.85039	7.3
675.86085	8.9
675.87131	17.35
675.88177	9.15
675.89223	10.7
675.90268	14.8
675.91313	8.35
675.92358	4.4
675.93402	-4.95
675.94447	5.45
675.95491	11.9
675.96535	0.4
675.97578	9.8
675.98622	19.15
675.99665	-3.8
676.00707	5.3
676.0175	11.6
676.02792	8.5
676.03835	3.8
676.04876	3
676.05918	0.6
676.06959	6.9
676.08	16.45
676.09041	14.3
676.10082	-0.4
676.11122	4.15
676.12162	59.5
676.13202	124.45
676.14242	21
676.15281	2.95
676.16321	-4.15
676.17359	-1.45
676.18398	-9.1
676.19437	2.3
676.20475	-0.2
676.21513	-3.5
676.2255	3.35
676.23588	13.65
676.24625	6.4
676.25662	0.45
676.26699	-2.2
676.27735	-0.15
676.28771	14.1
676.29807	8.2
676.30843	7.45
676.31878	3.7
676.32914	9.25
676.33949	7.3
676.34983	13.15
676.36018	6
676.37052	-2.65
676.38086	-5.7
676.3912	-3.55
676.40153	7.15
676.41187	14.3
676.4222	3.05
676.43252	7.25
676.44285	19.8
676.45317	7.7
676.46349	-3.85
676.47381	6.85
676.48413	10.55
676.49444	7.35
676.50475	12.45
676.51506	9
676.52536	15.15
676.53567	3.65
676.54597	6.45
676.55626	10.4
676.56656	4.1
676.57685	3.2
676.58714	9.7
676.59743	10.15
676.60772	6.8
676.618	-0.5
676.62828	-0.8
676.63856	-7.7
676.64884	-5.15
676.65911	-3.1
676.66938	-2.9
676.67965	2.8
676.68992	13.55
676.70018	14.75
676.71044	7.4
676.7207	26.35
676.73096	19.9
676.74121	12.7
676.75146	14.25
676.76171	17.9
676.77196	5.8
676.7822	0.85
676.79245	1.8
676.80269	7.8
676.81292	-5.25
676.82316	-5.15
676.83339	9.95
676.84362	23.45
676.85385	-1.35
676.86407	7.7
676.87429	4.2
676.88451	9.8
676.89473	11.4
676.90494	-13.55
676.91516	-6.9
676.92537	0.65
676.93557	7
676.94578	3.25
676.95598	-4.25
676.96618	-3.65
676.97638	-1.4
676.98657	-2.25
676.99677	-5.95
677.00696	3.25
677.01714	17.2
677.02733	12.65
677.03751	7.35
677.04769	1.9
677.05787	3.55
677.06805	7.95
677.07822	4.45
677.08839	7.2
677.09856	-1.4
677.10872	-3.05
677.11889	4.75
677.12905	10.7
677.13921	8.5
677.14936	1.15
677.15951	-3.45
677.16967	3.25
677.17981	9.7
677.18996	12.35
677.2001	-4.85
677.21025	-9.55
677.22038	-1.25
677.23052	2.5
677.24065	-1.3
677.25078	1.45
677.26091	9.4
677.27104	8.2
677.28116	-0.35
677.29129	1.7
677.3014	1.1
677.31152	21.25
677.32164	58.5
677.33175	4.2
677.34186	3.7
677.35196	7.05
677.36207	9.7
677.37217	9.15
677.38227	14.05
677.39236	9.75
677.40246	-0.6
677.41255	-9.95
677.42264	2.35
677.43273	7.9
677.44281	7.9
677.45289	12.05
677.46297	-4.95
677.47305	-7.35
677.48313	-3.9
677.4932	2.65
677.50327	1.45
677.51334	2.05
677.5234	3.35
677.53346	12.1
677.54352	7.1
677.55358	2.75
677.56364	7.9
677.57369	18.5
677.58374	9.5
677.59379	-7.15
677.60383	-4.4
677.61388	0.05
677.62392	3.05
677.63395	3
677.64399	7.2
677.65402	12.65
677.66405	5.75
677.67408	-1.4
677.68411	0.15
677.69413	5.55
677.70415	7.1
677.71417	10.55
677.72419	-2.85
677.7342	-0.35
677.74421	-3.7
677.75422	-7.25
677.76422	-0.75
677.77423	4.75
677.78423	12.5
677.79423	3.6
677.80422	8.65
677.81422	5.6
677.82421	-0.05
677.8342	4.2
677.84418	2.65
677.85417	5.8
677.86415	14.95
677.87413	3.8
677.88411	-4.15
677.89408	9.1
677.90405	6.6
677.91402	6.9
677.92399	6.8
677.93395	21.9
677.94391	13.25
677.95387	-2.2
677.96383	-0.8
677.97378	5.3
677.98374	0.25
677.99369	3.35
678.00363	14.3
678.01358	-0.15
678.02352	1.25
678.03346	10
678.0434	1.15
678.05333	-3
678.06326	4.45
678.07319	5.3
678.08312	5.05
678.09305	14.85
678.10297	2.4
678.11289	-6.2
678.12281	2.9
678.13272	2.2
678.14264	-2.35
678.15255	0.55
678.16245	2.6
678.17236	0.05
678.18226	0.8
678.19216	-2.25
678.20206	-9.65
678.21196	-1.8
678.22185	10.5
678.23174	10.85
678.24163	10.15
678.25151	8.85
678.2614	20
678.27128	21
678.28116	12.3
678.29103	12.8
678.30091	4.75
678.31078	-1.9
678.32065	-3.55
678.33051	4.7
678.34037	2.1
678.35024	-7.2
678.36009	0.85
678.36995	4.55
678.37981	8.55
678.38966	-5.1
678.39951	-0.9
678.40935	-0.6
678.4192	-2.45
678.42904	-6.7
678.43888	3.9
678.44871	1.8
678.45855	9.75
678.46838	13.7
678.47821	0.25
678.48804	3.5
678.49786	17.05
678.50768	20.7
678.5175	9.25
678.52732	12.5
678.53713	9.45
678.54694	8.65
678.55675	-7.85
678.56656	-6.05
678.57637	-0.55
678.58617	3.2
678.59597	14.4
678.60577	5.7
678.61556	-4.8
678.62535	3.6
678.63514	15.25
678.64493	9.75
678.65472	4.85
678.6645	11.8
678.67428	7.15
678.68406	7.1
678.69383	2.9
678.7036	-1.4
678.71337	8.25
678.72314	10.45
678.73291	6.65
678.74267	-1.1
678.75243	-1.45
678.76219	1.25
678.77195	5.1
678.7817	-1.4
678.79145	0.5
678.8012	5.45
678.81094	-2.3
678.82069	-0
678.83043	38.75
678.84017	76.45
678.8499	0.3
678.85964	1
678.86937	6.15
678.87909	11
678.88882	5.95
678.89854	-1.25
678.90827	3.3
678.91798	0.05
678.9277	0.4
678.93742	-8.55
678.94713	-0.9
678.95684	-0.75
678.96654	7.1
678.97625	8.45
678.98595	9.25
678.99565	-4.4
679.00534	-9.4
679.01504	-5.2
679.02473	-1
679.03442	-1.9
679.04411	12.2
679.05379	7.1
679.06347	-3.1
679.07315	-2.3
679.08283	6.5
679.0925	3.15
679.10218	6
679.11185	0.3
679.12151	0.25
679.13118	9.25
679.14084	-0.9
679.1505	0.35
679.16016	-2.15
679.16981	-5.95
679.17946	7.05
679.18911	9.65
679.19876	-7.15
679.20841	7.45
679.21805	13.05
679.22769	4.8
679.23733	7.65
679.24696	16.65
679.2566	4
679.26623	5.55
679.27585	3.55
679.28548	-6.35
679.2951	6.55
679.30472	0.8
679.31434	-5.6
679.32396	-4.3
679.33357	-8.1
679.34318	13.3
679.35279	25.05
679.3624	2.95
679.372	5.25
679.3816	10.4
679.3912	-1.6
679.40079	19
679.41039	12.8
679.41998	3.1
679.42957	1.85
679.43915	-1.35
679.44874	5.05
679.45832	16.4
679.4679	2.55
679.47747	-7
679.48705	-3.6
679.49662	7.35
679.50619	4.15
679.51575	-0.1
679.52532	1.2
679.53488	10.95
679.54444	4.6
679.554	4.1
679.56355	5.45
679.5731	9.15
679.58265	3.3
679.5922	-2.55
679.60174	5.3
679.61129	14.85
679.62083	3.35
679.63036	-11.6
679.6399	-3.5
679.64943	5.75
679.65896	7.35
679.66849	-1.25
679.67801	2.75
679.68753	7.15
679.69705	16.45
679.70657	24.65
679.71609	17.05
679.7256	15.55
679.73511	5.95
679.74462	-6.7
679.75412	-1.95
679.76362	10.95
679.77312	10.8
679.78262	0.3
679.79212	2.6
679.80161	7.85
679.8111	-3.15
679.82059	-5.45
679.83007	9.5
679.83956	14.15
679.84904	4.8
679.85852	8.8
679.86799	-1.55
679.87747	3.6
679.88694	-3.95
679.8964	-1.6
679.90587	-2.2
679.91533	9.1
679.92479	4.45
679.93425	1.45
679.94371	10.75
679.95316	10.25
679.96261	7.9
679.97206	3.6
679.98151	2
679.99095	-1.65
680.00039	-4.05
680.00983	-0.65
680.01927	10.8
680.0287	1.6
680.03814	17.9
680.04756	0.4
680.05699	-2.05
680.06641	4.6
680.07584	3.7
680.08526	-4.5
680.09467	3.75
680.10409	-1.2
680.1135	-7.75
680.12291	-3.25
680.13232	4.35
680.14172	12.35
680.15112	6.4
680.16052	2.6
680.16992	3.6
680.17931	5.65
680.18871	5.75
680.1981	-6.2
680.20748	-4.9
680.21687	-3.25
