Data from HR4C25001_14-15-00-806.txt Node
Date: Mon Jun 15 14:15:00 CDT 2026
User: jam28248
Spectrometer: HR4C2500
Trigger mode: 4
Integration Time (sec): 7.500000E-2
Scans to average: 20
Electric dark correction enabled: true
Nonlinearity correction enabled: false
Boxcar width: 0
XAxis mode: Wavelengths
Number of Pixels in Spectrum: 3648
>>>>>Begin Spectral Data<<<<<
629.66646	-15.06
629.6848	-15.06
629.70313	-15.06
629.72147	-47.61
629.7398	-37.41
629.75812	-5.06
629.77645	0.44
629.79477	4.84
629.81309	-4.21
629.83141	-9.06
629.84972	7.54
629.86803	6.24
629.88634	13.34
629.90465	-8.61
629.92295	-5.16
629.94126	-5.11
629.95956	1.49
629.97785	3.34
629.99615	-4.01
630.01444	19.69
630.03273	12.69
630.05102	14.49
630.0693	6.49
630.08759	13.74
630.10587	6.04
630.12415	-0.61
630.14242	3.24
630.16069	-8.86
630.17896	-2.81
630.19723	7.89
630.2155	22.74
630.23376	67.19
630.25202	26.74
630.27028	19.44
630.28854	11.94
630.30679	2.69
630.32504	4.54
630.34329	7.99
630.36153	12.39
630.37978	22.84
630.39802	11.74
630.41626	3.24
630.43449	-0.66
630.45273	3.99
630.47096	10.54
630.48919	7.69
630.50741	11.64
630.52564	3.79
630.54386	12.14
630.56208	21.39
630.58029	5.39
630.59851	3.89
630.61672	7.34
630.63493	14.24
630.65313	5.29
630.67134	4.94
630.68954	3.94
630.70774	15.84
630.72594	16.89
630.74413	2.54
630.76232	-5.91
630.78051	-1.71
630.7987	5.69
630.81688	10.84
630.83507	16.44
630.85325	14.74
630.87142	5.29
630.8896	4.44
630.90777	0.64
630.92594	-6.56
630.94411	14.74
630.96227	24.54
630.98043	39.04
630.99859	13.74
631.01675	8.84
631.03491	3.64
631.05306	-5.26
631.07121	9.44
631.08936	10.39
631.1075	0.19
631.12564	13.94
631.14379	9.29
631.16192	11.09
631.18006	7.24
631.19819	8.89
631.21632	8.39
631.23445	-5.61
631.25258	0.09
631.2707	6.89
631.28882	6.09
631.30694	10.59
631.32505	5.59
631.34317	13.04
631.36128	7.74
631.37939	14.89
631.39749	5.49
631.4156	3.39
631.4337	-0.86
631.4518	5.14
631.46989	-5.56
631.48799	-0.11
631.50608	-0.46
631.52417	-5.96
631.54225	3.44
631.56034	7.44
631.57842	5.99
631.5965	3.49
631.61457	-11.86
631.63265	-2.61
631.65072	9.89
631.66879	-3.11
631.68685	12.84
631.70492	21.54
631.72298	16.24
631.74104	3.74
631.7591	1.19
631.77715	1.69
631.7952	8.59
631.81325	13.29
631.8313	1.14
631.84934	12.59
631.86739	14.74
631.88543	7.99
631.90346	7.09
631.9215	-0.21
631.93953	6.99
631.95756	4.84
631.97559	6.69
631.99361	-1.41
632.01163	-3.01
632.02965	5.99
632.04767	15.24
632.06569	18.09
632.0837	7.94
632.10171	-1.36
632.11972	-7.96
632.13772	2.79
632.15573	16.49
632.17373	1.74
632.19172	-3.56
632.20972	1.19
632.22771	-6.71
632.2457	0.04
632.26369	7.94
632.28168	10.99
632.29966	3.39
632.31764	9.14
632.33562	4.69
632.35359	12.54
632.37157	9.79
632.38954	5.14
632.40751	2.09
632.42547	-9.11
632.44344	12.59
632.4614	10.19
632.47936	4.79
632.49731	2.99
632.51527	5.59
632.53322	13.59
632.55117	9.79
632.56911	5.39
632.58706	-0.56
632.605	1.54
632.62294	5.34
632.64087	9.44
632.65881	-5.81
632.67674	4.49
632.69467	-0.26
632.7126	-0.51
632.73052	10.69
632.74844	7.69
632.76636	10.74
632.78428	17.34
632.80219	27.09
632.8201	27.99
632.83801	5.89
632.85592	2.94
632.87383	15.34
632.89173	3.69
632.90963	-1.76
632.92753	4.39
632.94542	6.34
632.96331	11.24
632.9812	7.39
632.99909	4.29
633.01697	1.19
633.03486	7.29
633.05274	2.49
633.07061	7.24
633.08849	6.94
633.10636	9.39
633.12423	16.44
633.1421	8.39
633.15997	21.89
633.17783	7.59
633.19569	11.79
633.21355	12.14
633.2314	16.59
633.24926	-2.76
633.26711	1.64
633.28495	5.74
633.3028	-1.86
633.32064	4.59
633.33848	12.29
633.35632	21.99
633.37416	22.04
633.39199	8.69
633.40982	1.79
633.42765	8.39
633.44548	6.39
633.4633	-1.71
633.48112	-1.01
633.49894	-6.06
633.51676	4.89
633.53457	3.69
633.55238	10.79
633.57019	3.44
633.588	-6.91
633.6058	-8.36
633.6236	2.89
633.6414	6.49
633.6592	-1.86
633.67699	-8.86
633.69478	-1.21
633.71257	14.29
633.73036	12.99
633.74815	-0.81
633.76593	1.59
633.78371	7.79
633.80148	3.94
633.81926	1.34
633.83703	-0.96
633.8548	-15.06
633.87257	-15.06
633.89033	-6.01
633.90809	4.44
633.92585	3.29
633.94361	1.14
633.96137	6.34
633.97912	7.09
633.99687	-10.31
634.01462	3.74
634.03236	15.79
634.0501	14.64
634.06784	-2.76
634.08558	12.94
634.10332	12.44
634.12105	1.09
634.13878	10.49
634.15651	12.24
634.17423	6.49
634.19196	2.99
634.20968	1.49
634.22739	10.84
634.24511	13.59
634.26282	10.64
634.28053	20.29
634.29824	10.14
634.31595	7.54
634.33365	2.69
634.35135	-4.81
634.36905	-5.96
634.38675	6.64
634.40444	7.94
634.42213	-1.11
634.43982	3.19
634.4575	-1.26
634.47519	13.79
634.49287	21.04
634.51055	2.44
634.52822	3.44
634.5459	5.79
634.56357	3.19
634.58124	-10.36
634.59891	3.69
634.61657	6.14
634.63423	10.39
634.65189	11.54
634.66955	-0.36
634.6872	12.24
634.70485	8.14
634.7225	3.44
634.74015	10.94
634.75779	4.19
634.77544	1.19
634.79307	-1.16
634.81071	16.59
634.82835	8.24
634.84598	1.94
634.86361	-1.26
634.88123	7.74
634.89886	0.79
634.91648	0.24
634.9341	2.14
634.95172	8.14
634.96933	5.89
634.98695	10.64
635.00456	3.44
635.02216	8.04
635.03977	8.99
635.05737	3.59
635.07497	-0.76
635.09257	4.74
635.11016	7.59
635.12776	6.04
635.14535	0.84
635.16294	13.24
635.18052	5.19
635.1981	9.99
635.21569	12.24
635.23326	7.44
635.25084	12.64
635.26841	0.59
635.28598	7.54
635.30355	0.94
635.32112	-7.21
635.33868	-10.36
635.35624	-6.96
635.3738	1.54
635.39136	-0.41
635.40891	-5.36
635.42646	5.14
635.44401	5.79
635.46155	0.79
635.4791	2.44
635.49664	4.79
635.51418	15.59
635.53171	4.94
635.54925	2.54
635.56678	-0.16
635.58431	7.99
635.60184	20.94
635.61936	20.74
635.63688	0.59
635.6544	8.54
635.67192	-0.26
635.68943	6.99
635.70694	3.89
635.72445	5.89
635.74196	-5.41
635.75946	-5.41
635.77697	1.79
635.79447	6.49
635.81196	13.24
635.82946	-1.96
635.84695	-7.31
635.86444	6.49
635.88193	3.99
635.89941	9.89
635.91689	6.84
635.93437	0.49
635.95185	0.44
635.96933	-1.66
635.9868	9.14
636.00427	31.09
636.02174	9.04
636.0392	0.34
636.05666	16.34
636.07412	6.19
636.09158	2.99
636.10904	-3.46
636.12649	3.34
636.14394	1.19
636.16139	12.84
636.17883	1.54
636.19628	0.79
636.21372	-4.21
636.23116	2.64
636.24859	-4.11
636.26602	0.09
636.28345	11.29
636.30088	5.29
636.31831	0.84
636.33573	-3.41
636.35315	4.39
636.37057	8.39
636.38799	2.14
636.4054	10.79
636.42281	12.14
636.44022	7.54
636.45763	-1.51
636.47503	-4.16
636.49243	-5.26
636.50983	-7.06
636.52723	1.14
636.54462	0.59
636.56201	3.24
636.5794	-2.26
636.59679	-2.76
636.61417	8.49
636.63155	1.84
636.64893	17.69
636.66631	14.84
636.68368	-1.11
636.70106	-7.56
636.71843	-10.11
636.73579	-5.46
636.75316	5.19
636.77052	4.34
636.78788	5.89
636.80524	1.59
636.82259	-6.26
636.83994	-4.46
636.85729	-6.16
636.87464	-10.21
636.89198	-4.06
636.90933	12.59
636.92667	9.04
636.944	-4.31
636.96134	-7.31
636.97867	-2.41
636.996	-1.66
637.01333	0.14
637.03066	0.64
637.04798	-14.21
637.0653	-0.36
637.08262	4.69
637.09993	-4.21
637.11724	-4.16
637.13455	6.14
637.15186	14.99
637.16917	11.24
637.18647	3.44
637.20377	11.19
637.22107	7.79
637.23837	9.79
637.25566	25.04
637.27295	5.99
637.29024	7.04
637.30752	-5.71
637.32481	-0.76
637.34209	6.44
637.35937	21.64
637.37664	11.59
637.39392	8.84
637.41119	2.24
637.42846	3.94
637.44572	-3.41
637.46299	4.09
637.48025	22.54
637.49751	5.94
637.51476	-2.51
637.53202	8.39
637.54927	-0.16
637.56652	-0.21
637.58376	4.34
637.60101	-2.06
637.61825	5.09
637.63549	5.49
637.65273	4.59
637.66996	1.44
637.68719	4.99
637.70442	2.54
637.72165	5.89
637.73887	8.09
637.7561	10.89
637.77332	7.69
637.79053	2.24
637.80775	11.89
637.82496	3.59
637.84217	3.89
637.85938	1.29
637.87658	8.39
637.89378	4.34
637.91098	-2.56
637.92818	-6.76
637.94538	7.04
637.96257	12.34
637.97976	7.54
637.99695	3.39
638.01413	-4.66
638.03132	-1.56
638.0485	0.74
638.06567	-7.21
638.08285	-1.46
638.10002	5.19
638.11719	3.74
638.13436	0.29
638.15153	4.54
638.16869	-7.66
638.18585	-1.86
638.20301	-5.31
638.22016	-10.76
638.23732	-10.91
638.25447	-6.26
638.27162	-2.86
638.28876	-2.21
638.30591	-4.36
638.32305	2.94
638.34019	7.49
638.35732	10.79
638.37446	12.39
638.39159	-3.81
638.40872	-6.61
638.42584	-2.06
638.44297	1.99
638.46009	-0.81
638.47721	4.89
638.49432	17.79
638.51144	9.89
638.52855	6.54
638.54566	-4.76
638.56276	1.14
638.57987	4.49
638.59697	3.89
638.61407	0.09
638.63117	1.39
638.64826	1.84
638.66535	3.59
638.68244	-1.56
638.69953	5.09
638.71661	8.04
638.7337	-2.46
638.75078	-0.56
638.76785	3.29
638.78493	1.39
638.802	-5.96
638.81907	2.19
638.83614	5.34
638.8532	13.99
638.87026	-0.11
638.88732	-8.76
638.90438	-2.86
638.92144	9.54
638.93849	12.84
638.95554	8.74
638.97259	2.24
638.98963	7.14
639.00668	13.04
639.02372	6.74
639.04075	11.34
639.05779	9.49
639.07482	8.44
639.09185	10.14
639.10888	-13.96
639.12591	-12.86
639.14293	-0.46
639.15995	2.19
639.17697	22.84
639.19398	23.79
639.211	25.19
639.22801	15.59
639.24502	-0.26
639.26202	-1.31
639.27903	-3.41
639.29603	4.34
639.31303	14.89
639.33002	-3.11
639.34702	3.99
639.36401	4.64
639.381	2.19
639.39798	5.39
639.41497	8.19
639.43195	13.44
639.44893	1.24
639.4659	6.34
639.48288	10.34
639.49985	16.54
639.51682	3.14
639.53379	-6.91
639.55075	-9.51
639.56771	-15.06
639.58467	-3.61
639.60163	0.79
639.61858	0.84
639.63553	8.74
639.65248	7.29
639.66943	-5.61
639.68638	-1.66
639.70332	8.84
639.72026	9.39
639.73719	3.04
639.75413	10.79
639.77106	17.49
639.78799	29.59
639.80492	22.74
639.82184	5.14
639.83877	0.09
639.85569	6.04
639.8726	3.19
639.88952	7.44
639.90643	-4.91
639.92334	2.14
639.94025	3.69
639.95716	4.84
639.97406	2.64
639.99096	11.49
640.00786	7.84
640.02475	3.39
640.04165	-2.21
640.05854	1.54
640.07542	1.99
640.09231	5.59
640.10919	9.74
640.12607	10.64
640.14295	-3.46
640.15983	1.19
640.1767	6.14
640.19357	0.54
640.21044	-2.26
640.22731	5.84
640.24417	10.54
640.26103	13.54
640.27789	13.84
640.29475	0.14
640.3116	-11.81
640.32845	-4.36
640.3453	4.54
640.36215	-2.61
640.37899	-0.01
640.39583	19.99
640.41267	24.84
640.42951	3.14
640.44634	-13.26
640.46317	1.24
640.48	-4.71
640.49683	-9.11
640.51365	-7.01
640.53048	0.14
640.5473	5.14
640.56411	3.79
640.58093	11.39
640.59774	16.39
640.61455	-0.01
640.63136	2.04
640.64816	-5.01
640.66496	-3.46
640.68176	11.39
640.69856	-4.71
640.71535	0.09
640.73215	-0.26
640.74894	-0.86
640.76572	14.04
640.78251	14.94
640.79929	3.84
640.81607	7.54
640.83285	7.59
640.84963	12.64
640.8664	14.89
640.88317	21.84
640.89994	5.69
640.9167	3.94
640.93346	-3.86
640.95022	-3.51
640.96698	0.79
640.98374	-0.56
641.00049	-3.16
641.01724	-6.46
641.03399	-9.91
641.05074	-7.11
641.06748	-4.11
641.08422	5.39
641.10096	-0.26
641.11769	12.34
641.13443	4.29
641.15116	1.94
641.16789	-0.21
641.18461	-2.61
641.20134	15.64
641.21806	10.49
641.23478	-2.11
641.25149	3.24
641.26821	12.54
641.28492	1.49
641.30163	7.34
641.31833	-1.81
641.33504	0.69
641.35174	-2.31
641.36844	5.99
641.38514	6.99
641.40183	5.39
641.41852	6.09
641.43521	8.59
641.4519	25.84
641.46858	12.09
641.48526	-1.21
641.50194	1.84
641.51862	-0.81
641.53529	0.14
641.55197	12.04
641.56864	17.69
641.5853	2.79
641.60197	2.94
641.61863	6.89
641.63529	-9.61
641.65195	-3.61
641.6686	7.24
641.68526	9.69
641.70191	15.24
641.71855	20.94
641.7352	16.19
641.75184	0.29
641.76848	2.54
641.78512	-0.31
641.80175	0.29
641.81839	13.19
641.83502	16.69
641.85164	11.99
641.86827	14.29
641.88489	5.09
641.90151	-3.46
641.91813	1.04
641.93475	10.49
641.95136	4.99
641.96797	-3.01
641.98458	-12.06
642.00119	5.09
642.01779	9.69
642.03439	9.54
642.05099	-1.36
642.06758	-8.56
642.08418	0.54
642.10077	0.69
642.11736	7.44
642.13394	6.09
642.15053	4.64
642.16711	-0.61
642.18369	-3.51
642.20026	8.24
642.21684	16.34
642.23341	15.74
642.24998	9.84
642.26654	16.69
642.28311	10.74
642.29967	4.84
642.31623	-5.06
642.33279	4.19
642.34934	0.69
642.36589	-9.71
642.38244	-11.06
642.39899	51.69
642.41553	123.09
642.43207	18.14
642.44861	-9.11
642.46515	-0.16
642.48169	8.19
642.49822	4.79
642.51475	2.84
642.53127	-1.46
642.5478	2.84
642.56432	8.99
642.58084	5.74
642.59736	2.94
642.61387	9.09
642.63039	14.69
642.6469	11.49
642.6634	21.74
642.67991	0.89
642.69641	4.64
642.71291	-1.56
642.72941	10.04
642.74591	14.34
642.7624	3.24
642.77889	1.69
642.79538	-4.21
642.81186	-10.11
642.82834	-11.21
642.84483	-4.31
642.8613	1.34
642.87778	-3.66
642.89425	12.59
642.91072	38.29
642.92719	1.34
642.94366	2.34
642.96012	15.39
642.97658	4.49
642.99304	6.39
643.0095	5.84
643.02595	0.89
643.0424	-4.31
643.05885	5.54
643.0753	-3.71
643.09174	-8.81
643.10818	-5.66
643.12462	-5.26
643.14106	-0.06
643.15749	-0.01
643.17392	1.74
643.19035	22.94
643.20678	16.89
643.2232	4.09
643.23962	15.44
643.25604	4.84
643.27246	-6.16
643.28887	-0.66
643.30528	7.04
643.32169	12.79
643.3381	4.59
643.35451	7.64
643.37091	8.89
643.38731	4.34
643.4037	-5.06
643.4201	-3.76
643.43649	9.54
643.45288	18.09
643.46927	8.64
643.48565	1.94
643.50204	11.64
643.51842	11.04
643.53479	-0.31
643.55117	9.94
643.56754	6.14
643.58391	6.99
643.60028	1.09
643.61664	2.74
643.63301	5.64
643.64937	10.74
643.66572	6.39
643.68208	-2.26
643.69843	-0.76
643.71478	-6.36
643.73113	-3.76
643.74748	-2.36
643.76382	5.69
643.78016	1.49
643.7965	5.34
643.81283	9.74
643.82917	16.89
643.8455	4.09
643.86183	15.59
643.87815	18.74
643.89448	13.14
643.9108	9.89
643.92712	8.84
643.94343	12.19
643.95974	-4.51
643.97606	-7.26
643.99236	3.09
644.00867	9.89
644.02497	5.14
644.04128	2.04
644.05758	8.14
644.07387	12.54
644.09017	6.94
644.10646	7.39
644.12275	2.79
644.13903	3.59
644.15532	4.44
644.1716	2.29
644.18788	21.34
644.20415	7.19
644.22043	8.54
644.2367	11.74
644.25297	1.44
644.26924	7.84
644.2855	7.34
644.30176	2.39
644.31802	2.64
644.33428	13.94
644.35054	20.39
644.36679	7.54
644.38304	3.34
644.39928	9.39
644.41553	13.64
644.43177	2.69
644.44801	-4.26
644.46425	-1.71
644.48048	4.84
644.49672	1.19
644.51295	2.44
644.52917	1.69
644.5454	9.94
644.56162	4.54
644.57784	8.99
644.59406	4.29
644.61028	1.19
644.62649	1.44
644.6427	3.84
644.65891	-0.51
644.67511	-4.11
644.69132	4.19
644.70752	8.69
644.72372	12.54
644.73991	6.64
644.7561	9.89
644.7723	19.99
644.78848	30.69
644.80467	20.44
644.82085	4.39
644.83703	8.34
644.85321	14.19
644.86939	10.59
644.88556	13.59
644.90173	17.04
644.9179	23.04
644.93407	23.89
644.95023	34.49
644.96639	17.49
644.98255	13.64
644.99871	7.14
645.01486	3.44
645.03102	8.29
645.04716	15.69
645.06331	15.64
645.07946	38.49
645.0956	73.14
645.11174	17.19
645.12787	22.14
645.14401	9.64
645.16014	12.54
645.17627	8.59
645.1924	8.24
645.20852	18.24
645.22464	10.19
645.24076	22.54
645.25688	30.89
645.27299	14.69
645.28911	14.74
645.30522	6.29
645.32132	7.19
645.33743	12.14
645.35353	11.74
645.36963	2.89
645.38573	5.09
645.40182	7.39
645.41792	4.54
645.43401	-1.21
645.45009	5.19
645.46618	9.49
645.48226	1.09
645.49834	2.19
645.51442	-1.86
645.5305	-1.36
645.54657	3.94
645.56264	4.99
645.57871	-2.36
645.59477	4.99
645.61084	4.04
645.6269	10.14
645.64296	12.99
645.65901	10.29
645.67507	11.14
645.69112	2.84
645.70716	-1.36
645.72321	-1.51
645.73925	7.59
645.7553	7.04
645.77133	-3.46
645.78737	2.59
645.8034	17.54
645.81944	22.94
645.83546	5.49
645.85149	23.49
645.86751	6.59
645.88354	-2.81
645.89955	-1.96
645.91557	4.89
645.93159	-4.16
645.9476	-2.01
645.96361	3.19
645.97961	8.64
645.99562	12.19
646.01162	18.69
646.02762	11.34
646.04361	1.04
646.05961	-0.21
646.0756	-1.21
646.09159	9.84
646.10758	-0.41
646.12356	7.54
646.13954	12.04
646.15552	8.19
646.1715	18.94
646.18748	12.59
646.20345	8.24
646.21942	1.09
646.23539	13.29
646.25135	20.99
646.26731	7.34
646.28327	9.59
646.29923	10.09
646.31519	21.29
646.33114	21.04
646.34709	14.04
646.36304	1.74
646.37898	-3.96
646.39493	-8.11
646.41087	-0.11
646.4268	1.64
646.44274	-1.31
646.45867	-1.01
646.4746	11.89
646.49053	6.24
646.50646	-2.71
646.52238	-12.91
646.5383	-4.56
646.55422	0.74
646.57014	0.29
646.58605	3.59
646.60196	9.94
646.61787	3.54
646.63377	2.79
646.64968	7.34
646.66558	2.49
646.68148	-2.31
646.69737	4.64
646.71327	2.49
646.72916	2.74
646.74505	3.89
646.76093	16.69
646.77682	14.09
646.7927	0.99
646.80858	2.04
646.82446	-5.86
646.84033	-0.41
646.8562	-2.21
646.87207	-0.51
646.88794	5.84
646.9038	-5.21
646.91966	5.99
646.93552	4.19
646.95138	-4.21
646.96723	3.59
646.98309	13.94
646.99894	6.54
647.01478	3.94
647.03063	17.74
647.04647	1.94
647.06231	-2.81
647.07815	-5.31
647.09398	-3.86
647.10981	2.74
647.12564	-4.41
647.14147	4.09
647.1573	14.44
647.17312	1.49
647.18894	0.89
647.20476	-10.16
647.22057	-10.66
647.23638	1.54
647.25219	1.64
647.268	-3.36
647.28381	-0.66
647.29961	14.24
647.31541	6.94
647.33121	-0.21
647.34701	13.34
647.3628	2.74
647.37859	4.34
647.39438	4.24
647.41016	3.49
647.42595	3.74
647.44173	4.34
647.45751	2.04
647.47328	1.34
647.48905	1.09
647.50483	13.44
647.52059	7.29
647.53636	0.19
647.55212	-5.76
647.56789	10.14
647.58364	40.49
647.5994	8.29
647.61515	1.19
647.63091	6.29
647.64665	6.19
647.6624	1.04
647.67814	-3.61
647.69389	-6.51
647.70963	-3.71
647.72536	-12.36
647.7411	-7.61
647.75683	-1.01
647.77256	3.19
647.78828	2.64
647.80401	2.74
647.81973	5.09
647.83545	9.19
647.85117	7.84
647.86688	0.09
647.88259	-0.41
647.8983	5.64
647.91401	16.04
647.92971	13.49
647.94542	3.84
647.96112	8.09
647.97681	10.79
647.99251	4.64
648.0082	11.24
648.02389	10.19
648.03958	0.69
648.05526	1.49
648.07095	-1.36
648.08663	-0.86
648.1023	-6.46
648.11798	-5.41
648.13365	-9.46
648.14932	1.29
648.16499	4.49
648.18066	-0.11
648.19632	-4.61
648.21198	-1.01
648.22764	0.79
648.24329	6.39
648.25895	9.99
648.2746	-2.51
648.29025	1.14
648.30589	5.79
648.32153	6.19
648.33718	-3.66
648.35281	10.84
648.36845	34.79
648.38408	71.89
648.39971	8.24
648.41534	-3.71
648.43097	2.09
648.44659	9.49
648.46221	16.64
648.47783	9.69
648.49345	-5.61
648.50906	5.89
648.52467	8.74
648.54028	-3.81
648.55589	-5.81
648.57149	10.99
648.5871	6.84
648.6027	3.69
648.61829	6.54
648.63389	4.64
648.64948	7.09
648.66507	9.49
648.68065	1.14
648.69624	9.84
648.71182	24.34
648.7274	22.04
648.74298	20.49
648.75855	24.59
648.77412	18.69
648.78969	0.49
648.80526	-7.71
648.82083	2.99
648.83639	5.24
648.85195	0.59
648.8675	0.94
648.88306	3.99
648.89861	2.49
648.91416	1.04
648.92971	9.54
648.94526	15.34
648.9608	17.09
648.97634	11.89
648.99188	8.44
649.00741	5.94
649.02294	4.39
649.03847	7.84
649.054	0.04
649.06953	8.69
649.08505	-0.86
649.10057	4.19
649.11609	-4.66
649.13161	7.59
649.14712	2.09
649.16263	-1.91
649.17814	-1.71
649.19364	5.64
649.20915	19.89
649.22465	20.44
649.24015	17.89
649.25564	21.69
649.27114	11.29
649.28663	2.24
649.30212	-1.36
649.3176	1.39
649.33309	-6.36
649.34857	3.49
649.36405	7.59
649.37952	14.49
649.395	12.79
649.41047	16.29
649.42594	11.14
649.4414	0.59
649.45687	4.34
649.47233	-5.81
649.48779	3.84
649.50324	15.09
649.5187	16.59
649.53415	13.39
649.5496	12.24
649.56505	13.84
649.58049	11.24
649.59593	4.64
649.61137	4.19
649.62681	8.74
649.64224	0.84
649.65768	-0.96
649.67311	14.74
649.68853	20.64
649.70396	11.59
649.71938	15.79
649.7348	10.44
649.75022	24.39
649.76563	6.99
649.78105	9.19
649.79646	-2.81
649.81186	6.04
649.82727	11.59
649.84267	3.79
649.85807	8.24
649.87347	-2.91
649.88886	2.14
649.90426	5.04
649.91965	3.29
649.93504	-1.56
649.95042	10.24
649.9658	1.99
649.98119	3.74
649.99656	7.69
650.01194	0.09
650.02731	-0.81
650.04268	1.09
650.05805	0.09
650.07342	-0.56
650.08878	9.09
650.10414	10.09
650.1195	-3.61
650.13486	-0.46
650.15021	0.79
650.16556	10.49
650.18091	8.19
650.19626	8.49
650.2116	10.44
650.22694	4.54
650.24228	13.59
650.25762	5.19
650.27295	3.44
650.28828	0.84
650.30361	7.94
650.31894	-0.81
650.33426	-0.66
650.34958	2.84
650.3649	26.14
650.38022	14.64
650.39553	-1.71
650.41085	5.34
650.42616	3.14
650.44146	6.74
650.45677	7.24
650.47207	6.64
650.48737	13.59
650.50267	-2.41
650.51796	-4.01
650.53325	5.89
650.54854	13.89
650.56383	14.04
650.57911	5.54
650.5944	5.39
650.60968	7.34
650.62495	8.84
650.64023	7.94
650.6555	-4.86
650.67077	-3.51
650.68604	0.94
650.70131	6.79
650.71657	7.59
650.73183	11.94
650.74709	7.74
650.76234	2.49
650.77759	8.09
650.79285	9.04
650.80809	6.84
650.82334	4.94
650.83858	4.09
650.85382	6.09
650.86906	11.34
650.8843	22.54
650.89953	6.89
650.91476	1.99
650.92999	-1.81
650.94522	0.54
650.96044	8.39
650.97566	7.94
650.99088	-0.01
651.00609	-1.11
651.02131	3.29
651.03652	4.09
651.05173	3.49
651.06693	-11.21
651.08214	-7.86
651.09734	-4.91
651.11254	-2.86
651.12773	-6.01
651.14293	8.94
651.15812	-1.76
651.17331	-0.26
651.1885	13.29
651.20368	-1.96
651.21886	-6.06
651.23404	7.69
651.24922	11.64
651.26439	4.89
651.27956	3.34
651.29473	1.94
651.3099	14.09
651.32507	-8.31
651.34023	-1.86
651.35539	0.39
651.37054	-6.21
651.3857	-14.11
651.40085	-1.91
651.416	4.29
651.43115	-0.56
651.44629	-2.51
651.46144	-7.86
651.47658	6.34
651.49171	18.84
651.50685	10.34
651.52198	5.19
651.53711	1.39
651.55224	-5.46
651.56736	-0.36
651.58249	9.34
651.59761	12.59
651.61273	-10.71
651.62784	1.89
651.64295	3.74
651.65806	-2.06
651.67317	-1.76
651.68828	1.24
651.70338	8.34
651.71848	16.09
651.73358	20.29
651.74868	-1.16
651.76377	3.04
651.77886	7.74
651.79395	2.79
651.80904	-1.21
651.82412	8.59
651.8392	3.09
651.85428	5.94
651.86935	9.59
651.88443	14.99
651.8995	6.64
651.91457	-3.56
651.92963	2.59
651.9447	20.04
651.95976	10.79
651.97482	1.74
651.98988	5.04
652.00493	-3.36
652.01998	1.49
652.03503	17.79
652.05008	25.94
652.06512	60.89
652.08016	10.49
652.0952	3.69
652.11024	25.44
652.12527	11.19
652.14031	4.49
652.15534	7.19
652.17036	12.49
652.18539	4.04
652.20041	10.04
652.21543	8.79
652.23045	-1.56
652.24546	2.44
652.26047	9.94
652.27548	8.99
652.29049	5.44
652.3055	-0.16
652.3205	8.64
652.3355	4.49
652.3505	3.19
652.36549	10.04
652.38048	13.24
652.39547	10.74
652.41046	7.89
652.42545	17.74
652.44043	14.99
652.45541	2.64
652.47039	12.54
652.48536	4.44
652.50034	-6.71
652.51531	-5.46
652.53028	1.74
652.54524	4.94
652.5602	0.84
652.57517	-5.91
652.59012	29.44
652.60508	76.74
652.62003	12.89
652.63498	-1.46
652.64993	0.49
652.66488	0.24
652.67982	4.79
652.69476	8.54
652.7097	-1.31
652.72464	-5.41
652.73957	4.14
652.7545	11.74
652.76943	22.94
652.78436	5.34
652.79928	5.84
652.8142	11.34
652.82912	5.94
652.84404	1.64
652.85895	-7.01
652.87387	1.49
652.88877	15.79
652.90368	16.39
652.91859	-4.96
652.93349	-1.86
652.94839	1.79
652.96328	2.39
652.97818	1.99
652.99307	3.44
653.00796	9.39
653.02285	1.14
653.03773	5.09
653.05261	-0.61
653.06749	2.84
653.08237	1.29
653.09725	5.04
653.11212	6.29
653.12699	0.99
653.14186	13.29
653.15672	23.54
653.17158	7.39
653.18644	12.54
653.2013	7.54
653.21616	8.89
653.23101	9.64
653.24586	-0.26
653.26071	-7.11
653.27555	12.69
653.29039	20.04
653.30524	3.14
653.32007	3.54
653.33491	92.89
653.34974	221.19
653.36457	23.69
653.3794	0.29
653.39423	-3.01
653.40905	-3.81
653.42387	-3.16
653.43869	1.69
653.45351	2.04
653.46832	-5.21
653.48313	-4.16
653.49794	5.24
653.51274	9.59
653.52755	12.39
653.54235	4.69
653.55715	-5.41
653.57194	0.49
653.58674	6.79
653.60153	7.79
653.61632	3.24
653.6311	-8.81
653.64589	-4.06
653.66067	9.49
653.67545	6.39
653.69023	-0.81
653.705	-4.41
653.71977	-3.46
653.73454	-1.06
653.74931	-1.36
653.76407	6.39
653.77883	10.74
653.79359	12.94
653.80835	4.94
653.8231	3.44
653.83786	8.99
653.85261	17.69
653.86735	9.24
653.8821	34.29
653.89684	11.04
653.91158	6.84
653.92632	18.84
653.94105	15.24
653.95579	13.64
653.97052	0.39
653.98524	-2.51
653.99997	3.89
654.01469	5.14
654.02941	7.84
654.04413	15.44
654.05884	6.19
654.07356	15.94
654.08827	51.99
654.10297	97.39
654.11768	22.74
654.13238	21.69
654.14708	14.94
654.16178	2.94
654.17648	5.04
654.19117	-3.81
654.20586	-7.61
654.22055	8.69
654.23524	10.49
654.24992	40.34
654.2646	63.14
654.27928	25.69
654.29395	18.54
654.30863	24.34
654.3233	24.69
654.33797	11.89
654.35263	12.04
654.3673	17.59
654.38196	15.49
654.39662	0.64
654.41127	7.19
654.42593	12.09
654.44058	13.54
654.45523	3.99
654.46987	4.39
654.48452	14.94
654.49916	11.69
654.5138	10.44
654.52844	12.69
654.54307	15.84
654.5577	22.24
654.57233	10.79
654.58696	14.34
654.60158	12.64
654.6162	10.44
654.63082	7.84
654.64544	14.69
654.66005	9.19
654.67467	7.34
654.68928	17.79
654.70388	14.64
654.71849	14.74
654.73309	49.24
654.74769	103.79
654.76229	20.94
654.77688	22.04
654.79148	12.94
654.80607	5.69
654.82065	22.49
654.83524	19.54
654.84982	12.19
654.8644	7.04
654.87898	3.14
654.89355	9.34
654.90813	10.74
654.9227	3.69
654.93727	4.79
654.95183	11.69
654.96639	13.84
654.98095	18.69
654.99551	13.04
655.01007	21.69
655.02462	5.14
655.03917	7.84
655.05372	13.64
655.06827	15.04
655.08281	26.84
655.09735	26.54
655.11189	27.99
655.12643	27.64
655.14096	26.14
655.15549	28.79
655.17002	13.94
655.18454	14.24
655.19907	23.04
655.21359	31.89
655.22811	38.04
655.24262	31.79
655.25714	36.84
655.27165	48.54
655.28616	43.24
655.30067	47.64
655.31517	54.94
655.32967	64.59
655.34417	88.29
655.35867	142.04
655.37316	329.09
655.38765	1070.79
655.40214	3205.04
655.41663	6843.94
655.43111	9662.89
655.4456	9158.04
655.46008	6654.04
655.47455	4823.59
655.48903	4009.29
655.5035	3296.39
655.51797	2513.39
655.53244	1741.34
655.5469	1229.94
655.56136	1305.54
655.57582	2604.59
655.59028	5607.14
655.60474	8764.19
655.61919	9327.04
655.63364	7273.04
655.64809	5137.69
655.66253	4055.54
655.67697	3352.39
655.69141	2647.69
655.70585	1876.19
655.72029	1208.39
655.73472	704.79
655.74915	391.14
655.76358	228.69
655.778	147.09
655.79243	118.39
655.80685	86.94
655.82127	60.39
655.83568	53.34
655.8501	58.84
655.86451	40.89
655.87891	39.99
655.89332	28.59
655.90772	18.89
655.92212	18.69
655.93652	37.69
655.95092	27.34
655.96531	21.04
655.9797	14.14
655.99409	22.39
656.00848	14.54
656.02286	22.44
656.03724	24.04
656.05162	13.79
656.066	5.54
656.08037	7.49
656.09475	10.84
656.10911	7.34
656.12348	15.34
656.13784	17.49
656.15221	16.39
656.16657	27.24
656.18092	20.19
656.19528	18.89
656.20963	13.49
656.22398	9.84
656.23833	16.14
656.25267	18.94
656.26701	19.14
656.28135	4.04
656.29569	8.24
656.31002	19.34
656.32436	25.79
656.33869	23.44
656.35301	9.14
656.36734	11.04
656.38166	2.94
656.39598	1.69
656.4103	-1.81
656.42461	4.44
656.43892	4.19
656.45323	2.99
656.46754	7.09
656.48185	8.49
656.49615	6.54
656.51045	10.44
656.52475	9.64
656.53904	8.44
656.55334	3.74
656.56763	4.44
656.58192	7.44
656.5962	6.89
656.61048	1.94
656.62476	3.74
656.63904	9.74
656.65332	10.74
656.66759	5.64
656.68186	3.49
656.69613	8.74
656.7104	5.74
656.72466	15.09
656.73892	11.64
656.75318	15.14
656.76744	2.39
656.78169	7.84
656.79594	23.39
656.81019	33.94
656.82444	-0.36
656.83868	7.84
656.85292	8.74
656.86716	5.54
656.8814	9.64
656.89563	5.39
656.90986	2.64
656.92409	5.69
656.93832	9.39
656.95254	6.29
656.96676	7.74
656.98098	22.49
656.9952	7.44
657.00941	8.99
657.02363	-3.41
657.03784	-0.01
657.05204	3.94
657.06625	19.29
657.08045	2.49
657.09465	0.79
657.10885	-7.86
657.12304	0.89
657.13723	3.59
657.15142	7.99
657.16561	2.74
657.1798	-1.36
657.19398	-14.16
657.20816	-2.36
657.22234	1.29
657.23651	0.84
657.25068	2.89
657.26485	6.09
657.27902	1.54
657.29319	-6.56
657.30735	4.54
657.32151	3.84
657.33567	11.64
657.34982	24.29
657.36398	14.94
657.37813	14.34
657.39227	-0.46
657.40642	14.64
657.42056	19.04
657.4347	8.14
657.44884	8.74
657.46298	4.79
657.47711	10.84
657.49124	17.44
657.50537	-1.91
657.5195	2.04
657.53362	-2.96
657.54774	1.29
657.56186	18.44
657.57598	27.09
657.59009	8.64
657.6042	7.69
657.61831	8.74
657.63242	10.29
657.64652	9.54
657.66062	11.74
657.67472	12.54
657.68882	7.09
657.70291	1.49
657.717	8.69
657.73109	6.14
657.74518	11.44
657.75926	4.44
657.77335	0.09
657.78742	1.39
657.8015	-0.56
657.81558	6.34
657.82965	10.14
657.84372	-1.56
657.85778	6.49
657.87185	0.74
657.88591	6.79
657.89997	3.14
657.91403	12.99
657.92808	13.79
657.94214	8.04
657.95618	7.44
657.97023	0.74
657.98428	5.79
657.99832	30.69
658.01236	11.54
658.0264	-6.56
658.04043	-0.26
658.05447	6.04
658.0685	-9.56
658.08252	-3.71
658.09655	8.39
658.11057	14.59
658.12459	18.34
658.13861	22.19
658.15263	9.59
658.16664	21.09
658.18065	9.04
658.19466	1.84
658.20866	-2.16
658.22267	1.14
658.23667	11.34
658.25067	8.99
658.26466	7.39
658.27865	7.09
658.29265	2.04
658.30663	4.34
658.32062	4.54
658.3346	7.49
658.34858	9.69
658.36256	7.99
658.37654	5.79
658.39051	13.09
658.40448	13.59
658.41845	9.99
658.43242	5.19
658.44638	1.74
658.46035	0.44
658.4743	7.89
658.48826	13.79
658.50221	16.89
658.51617	9.24
658.53012	-0.81
658.54406	0.74
658.55801	6.14
658.57195	-0.41
658.58589	13.74
658.59983	12.29
658.61376	-5.61
658.62769	-1.01
658.64162	13.89
658.65555	10.54
658.66947	1.49
658.6834	39.34
658.69731	95.89
658.71123	17.09
658.72515	15.24
658.73906	11.34
658.75297	12.34
658.76688	7.54
658.78078	13.64
658.79468	3.74
658.80858	-4.71
658.82248	1.74
658.83638	6.79
658.85027	12.29
658.86416	4.99
658.87805	6.74
658.89193	-1.41
658.90582	1.69
658.9197	5.94
658.93357	6.89
658.94745	3.89
658.96132	-4.01
658.97519	6.44
658.98906	-4.91
659.00293	-4.76
659.01679	-5.46
659.03065	1.94
659.04451	11.69
659.05837	5.34
659.07222	1.79
659.08607	2.59
659.09992	11.79
659.11377	9.99
659.12761	-0.71
659.14145	5.89
659.15529	9.54
659.16913	11.49
659.18296	10.39
659.19679	4.44
659.21062	10.49
659.22445	5.09
659.23827	31.54
659.25209	22.84
659.26591	11.29
659.27973	17.04
659.29354	7.34
659.30735	-1.56
659.32116	9.49
659.33497	6.49
659.34877	-5.91
659.36258	1.19
659.37637	15.09
659.39017	11.79
659.40397	-5.06
659.41776	1.54
659.43155	6.49
659.44533	7.64
659.45912	17.94
659.4729	0.84
659.48668	7.54
659.50046	4.44
659.51423	2.34
659.52801	7.74
659.54178	12.94
659.55554	2.54
659.56931	10.99
659.58307	7.14
659.59683	8.09
659.61059	7.29
659.62434	34.09
659.6381	61.54
659.65185	2.44
659.6656	-1.51
659.67934	6.44
659.69308	6.39
659.70682	10.59
659.72056	9.84
659.7343	8.44
659.74803	0.24
659.76176	5.04
659.77549	3.54
659.78922	15.99
659.80294	-8.56
659.81666	-5.26
659.83038	5.39
659.84409	9.04
659.85781	0.59
659.87152	0.04
659.88523	7.04
659.89893	5.14
659.91264	11.94
659.92634	21.24
659.94004	12.94
659.95373	10.94
659.96743	10.59
659.98112	16.14
659.99481	11.34
660.00849	5.69
660.02218	11.79
660.03586	15.24
660.04954	-2.31
660.06322	4.94
660.07689	20.04
660.09056	25.09
660.10423	-6.11
660.1179	5.29
660.13156	14.59
660.14522	6.34
660.15888	0.99
660.17254	1.94
660.1862	11.04
660.19985	5.29
660.2135	-2.76
660.22714	2.99
660.24079	2.14
660.25443	1.24
660.26807	6.09
660.28171	12.29
660.29534	11.79
660.30898	5.89
660.32261	1.99
660.33623	-8.51
660.34986	-7.71
660.36348	14.34
660.3771	9.24
660.39072	20.49
660.40433	17.74
660.41795	14.89
660.43156	4.49
660.44517	7.29
660.45877	10.64
660.47237	3.44
660.48598	1.74
660.49957	2.44
660.51317	6.79
660.52676	3.94
660.54035	13.29
660.55394	16.54
660.56753	5.89
660.58111	12.74
660.59469	19.34
660.60827	-0.86
660.62185	8.29
660.63542	15.94
660.64899	13.14
660.66256	19.34
660.67613	15.14
660.68969	16.09
660.70325	14.39
660.71681	4.74
660.73037	-1.96
660.74392	6.54
660.75747	3.99
660.77102	6.19
660.78457	1.04
660.79811	13.19
660.81165	18.14
660.82519	8.84
660.83873	4.14
660.85226	10.64
660.86579	14.39
660.87932	8.09
660.89285	-0.16
660.90637	18.89
660.9199	15.29
660.93342	8.89
660.94693	13.74
660.96045	1.34
660.97396	10.59
660.98747	20.34
661.00098	2.34
661.01448	-4.46
661.02798	-0.41
661.04148	6.74
661.05498	16.54
661.06848	5.49
661.08197	0.89
661.09546	22.34
661.10895	40.44
661.12243	12.89
661.13591	14.74
661.14939	-1.06
661.16287	1.59
661.17635	13.59
661.18982	13.74
661.20329	28.49
661.21676	22.74
661.23022	8.19
661.24369	6.84
661.25715	10.44
661.27061	4.19
661.28406	13.24
661.29752	-4.71
661.31097	-3.86
661.32441	5.44
661.33786	0.99
661.3513	0.54
661.36474	2.94
661.37818	7.84
661.39162	4.94
661.40505	49.74
661.41848	118.14
661.43191	18.29
661.44534	7.49
661.45876	9.99
661.47218	11.54
661.4856	8.69
661.49902	11.94
661.51243	1.84
661.52585	13.39
661.53925	10.49
661.55266	9.99
661.56606	6.14
661.57947	7.49
661.59287	-0.26
661.60626	-1.96
661.61966	9.19
661.63305	5.49
661.64644	6.94
661.65983	2.94
661.67321	7.04
661.68659	6.54
661.69997	20.39
661.71335	13.89
661.72672	24.19
661.7401	44.34
661.75347	3.89
661.76683	11.29
661.7802	20.14
661.79356	18.94
661.80692	-0.76
661.82028	8.64
661.83363	5.24
661.84698	-0.86
661.86033	9.99
661.87368	11.34
661.88703	15.24
661.90037	6.89
661.91371	5.14
661.92705	4.39
661.94038	6.04
661.95372	7.14
661.96705	20.94
661.98038	27.19
661.9937	10.34
662.00702	5.04
662.02034	17.49
662.03366	10.99
662.04698	4.69
662.06029	0.34
662.0736	-0.36
662.08691	-1.31
662.10022	5.14
662.11352	10.69
662.12682	11.44
662.14012	-7.51
662.15342	0.89
662.16671	13.49
662.18	3.04
662.19329	1.74
662.20658	-1.76
662.21986	2.69
662.23314	2.84
662.24642	0.44
662.2597	10.79
662.27297	7.04
662.28624	-1.06
662.29951	10.24
662.31278	0.39
662.32604	-2.31
662.3393	4.74
662.35256	4.79
662.36582	-0.66
662.37907	-2.91
662.39233	3.89
662.40558	7.19
662.41882	8.99
662.43207	13.29
662.44531	9.29
662.45855	-1.06
662.47179	0.44
662.48502	1.84
662.49825	2.54
662.51148	13.34
662.52471	15.49
662.53794	2.44
662.55116	14.29
662.56438	6.94
662.5776	2.99
662.59081	15.54
662.60402	14.84
662.61723	6.59
662.63044	13.74
662.64365	6.74
662.65685	3.79
662.67005	14.89
662.68325	19.94
662.69644	5.29
662.70964	4.04
662.72283	8.64
662.73601	9.64
662.7492	11.14
662.76238	7.49
662.77556	5.59
662.78874	13.24
662.80192	15.24
662.81509	20.44
662.82826	13.09
662.84143	0.74
662.8546	3.74
662.86776	3.04
662.88092	-3.41
662.89408	-0.66
662.90724	11.99
662.92039	28.39
662.93354	4.54
662.94669	1.94
662.95984	2.24
662.97298	0.99
662.98612	-3.31
662.99926	-4.56
663.0124	7.64
663.02553	7.19
663.03866	12.79
663.05179	7.29
663.06492	10.89
663.07804	16.04
663.09116	19.39
663.10428	3.69
663.1174	-0.71
663.13052	4.34
663.14363	5.84
663.15674	-4.16
663.16984	6.34
663.18295	14.59
663.19605	13.54
663.20915	11.94
663.22225	8.59
663.23534	12.19
663.24843	1.64
663.26152	-2.71
663.27461	-0.56
663.2877	6.44
663.30078	6.69
663.31386	7.84
663.32694	7.14
663.34001	19.94
663.35308	14.99
663.36615	3.84
663.37922	13.04
663.39229	20.89
663.40535	-3.81
663.41841	-4.31
663.43147	-1.41
663.44452	11.14
663.45758	15.69
663.47063	13.19
663.48368	4.44
663.49672	7.89
663.50977	-3.06
663.52281	5.14
663.53584	1.09
663.54888	-6.31
663.56191	-6.71
663.57494	-4.31
663.58797	-6.56
663.601	0.79
663.61402	4.59
663.62704	10.19
663.64006	6.84
663.65308	6.44
663.66609	-4.96
663.6791	-3.71
663.69211	18.94
663.70512	23.44
663.71812	8.54
663.73112	0.64
663.74412	2.64
663.75712	13.44
663.77011	7.69
663.78311	6.79
663.79609	8.64
663.80908	8.69
663.82207	5.79
663.83505	-8.71
663.84803	-1.46
663.861	3.39
663.87398	2.79
663.88695	1.44
663.89992	-0.91
663.91289	3.94
663.92585	8.49
663.93881	1.09
663.95177	11.14
663.96473	23.94
663.97769	8.14
663.99064	-3.91
664.00359	-0.71
664.01654	16.24
664.02948	12.59
664.04242	6.84
664.05536	1.89
664.0683	3.99
664.08124	11.74
664.09417	15.14
664.1071	11.44
664.12003	11.54
664.13295	4.24
664.14588	3.64
664.1588	2.49
664.17171	-0.46
664.18463	7.04
664.19754	1.29
664.21045	13.24
664.22336	8.64
664.23627	8.09
664.24917	12.44
664.26207	4.59
664.27497	2.49
664.28787	13.09
664.30076	18.19
664.31365	4.44
664.32654	7.34
664.33942	1.39
664.35231	2.64
664.36519	1.14
664.37807	4.64
664.39094	10.29
664.40382	15.49
664.41669	13.19
664.42956	9.29
664.44242	6.59
664.45529	7.49
664.46815	7.74
664.48101	9.79
664.49387	14.49
664.50672	-6.91
664.51957	-0.56
664.53242	6.74
664.54527	5.29
664.55811	6.14
664.57095	4.34
664.58379	4.69
664.59663	-0.71
664.60946	7.99
664.6223	12.69
664.63513	10.44
664.64795	13.69
664.66078	8.34
664.6736	0.39
664.68642	-0.21
664.69924	-1.51
664.71205	3.84
664.72486	-0.46
664.73767	2.89
664.75048	13.39
664.76329	13.09
664.77609	4.64
664.78889	17.49
664.80169	9.84
664.81448	-0.46
664.82728	3.19
664.84007	7.69
664.85285	1.04
664.86564	12.14
664.87842	-2.81
664.8912	0.34
664.90398	13.14
664.91676	14.14
664.92953	5.04
664.9423	11.29
664.95507	15.69
664.96783	8.94
664.9806	13.44
664.99336	5.54
665.00612	8.19
665.01887	12.29
665.03163	10.39
665.04438	14.24
665.05713	24.14
665.06987	1.89
665.08262	-5.16
665.09536	-3.56
665.1081	5.74
665.12083	4.59
665.13357	-1.91
665.1463	14.59
665.15903	16.64
665.17175	19.74
665.18448	4.59
665.1972	4.79
665.20992	3.94
665.22263	6.54
665.23535	27.39
665.24806	52.79
665.26077	7.39
665.27348	-0.06
665.28618	13.49
665.29888	7.24
665.31158	-4.66
665.32428	17.19
665.33697	10.74
665.34967	2.64
665.36236	1.64
665.37504	4.44
665.38773	5.44
665.40041	15.64
665.41309	11.34
665.42577	9.54
665.43844	0.14
665.45111	4.09
665.46378	0.69
665.47645	4.39
665.48912	13.64
665.50178	11.54
665.51444	3.14
665.5271	12.14
665.53975	3.14
665.55241	-2.21
665.56506	2.94
665.5777	-0.56
665.59035	6.34
665.60299	11.89
665.61563	12.74
665.62827	13.24
665.64091	9.24
665.65354	-0.46
665.66617	3.79
665.6788	10.39
665.69142	17.84
665.70405	11.19
665.71667	0.19
665.72929	-1.46
665.7419	6.19
665.75452	-4.86
665.76713	-0.46
665.77974	1.59
665.79234	17.79
665.80495	10.69
665.81755	6.99
665.83015	-5.96
665.84274	7.39
665.85534	-1.61
665.86793	0.69
665.88052	5.19
665.8931	9.89
665.90569	-2.16
665.91827	-0.56
665.93085	-6.01
665.94343	11.44
665.956	11.89
665.96857	-3.61
665.98114	-2.31
665.99371	-15.11
666.00627	-12.41
666.01883	-2.56
666.03139	10.29
666.04395	8.84
666.05651	14.89
666.06906	18.84
666.08161	10.74
666.09415	6.79
666.1067	5.99
666.11924	6.79
666.13178	2.24
666.14432	0.64
666.15685	-0.71
666.16939	0.84
666.18192	3.24
666.19444	3.24
666.20697	10.44
666.21949	18.74
666.23201	15.49
666.24453	5.24
666.25705	10.39
666.26956	4.14
666.28207	6.39
666.29458	2.29
666.30708	-0.56
666.31959	4.94
666.33209	12.64
666.34458	6.69
666.35708	9.99
666.36957	17.24
666.38206	16.39
666.39455	12.24
666.40704	5.64
666.41952	9.29
666.432	6.99
666.44448	7.24
666.45696	-0.16
666.46943	3.04
666.4819	6.64
666.49437	12.49
666.50684	12.59
666.5193	1.39
666.53176	-9.86
666.54422	-6.01
666.55668	7.44
666.56913	1.94
666.58158	7.39
666.59403	15.14
666.60648	8.74
666.61892	6.74
666.63136	12.39
666.6438	9.44
666.65624	6.09
666.66867	11.34
666.68111	9.54
666.69354	12.59
666.70596	12.34
666.71839	2.79
666.73081	8.74
666.74323	0.04
666.75565	16.99
666.76806	13.44
666.78047	-1.76
666.79288	1.24
666.80529	8.04
666.81769	5.49
666.8301	7.39
666.8425	5.69
666.85489	-1.86
666.86729	4.44
666.87968	-2.01
666.89207	-0.41
666.90446	9.09
666.91684	8.54
666.92923	0.89
666.94161	20.44
666.95399	40.94
666.96636	10.74
666.97873	7.14
666.9911	-5.11
667.00347	3.54
667.01584	10.04
667.0282	10.49
667.04056	-2.11
667.05292	2.94
667.06528	8.89
667.07763	-0.16
667.08998	7.89
667.10233	11.44
667.11467	-0.61
667.12702	-2.26
667.13936	2.14
667.1517	12.14
667.16403	8.54
667.17637	8.54
667.1887	-0.91
667.20103	-6.26
667.21335	-4.76
667.22568	0.79
667.238	8.34
667.25032	11.39
667.26263	15.29
667.27495	1.49
667.28726	10.34
667.29957	22.39
667.31188	18.59
667.32418	10.89
667.33648	6.24
667.34878	12.14
667.36108	5.79
667.37337	-10.01
667.38566	-0.81
667.39795	9.94
667.41024	6.94
667.42252	23.04
667.43481	15.39
667.44709	7.49
667.45936	5.79
667.47164	9.59
667.48391	8.44
667.49618	-2.66
667.50845	-4.01
667.52071	7.14
667.53297	7.04
667.54523	8.04
667.55749	5.89
667.56975	6.29
667.582	0.29
667.59425	8.44
667.6065	22.54
667.61874	4.94
667.63099	15.54
667.64323	14.14
667.65546	-2.46
667.6677	0.19
667.67993	4.04
667.69216	9.99
667.70439	2.09
667.71662	2.29
667.72884	8.94
667.74106	8.54
667.75328	9.39
667.76549	11.19
667.77771	7.94
667.78992	8.69
667.80213	7.54
667.81433	-3.66
667.82654	4.54
667.83874	9.49
667.85094	-5.16
667.86313	-4.26
667.87533	-4.66
667.88752	-0.31
667.89971	1.29
667.91189	0.64
667.92408	-1.01
667.93626	3.09
667.94844	8.24
667.96061	13.89
667.97279	1.44
667.98496	1.94
667.99713	0.09
668.0093	4.94
668.02146	10.44
668.03362	13.09
668.04578	3.34
668.05794	-7.66
668.07009	1.49
668.08224	7.59
668.09439	21.99
668.10654	13.29
668.11868	12.34
668.13083	8.69
668.14297	2.89
668.1551	4.94
668.16724	9.09
668.17937	8.34
668.1915	2.94
668.20363	6.64
668.21575	4.74
668.22788	-0.96
668.24	9.79
668.25211	16.99
668.26423	20.84
668.27634	-0.21
668.28845	2.79
668.30056	-1.56
668.31266	0.59
668.32477	5.69
668.33687	-2.16
668.34897	-4.66
668.36106	6.89
668.37315	13.29
668.38524	7.29
668.39733	6.09
668.40942	-5.01
668.4215	5.44
668.43358	3.69
668.44566	4.99
668.45774	5.54
668.46981	-2.01
668.48188	1.79
668.49395	7.39
668.50602	13.24
668.51808	6.89
668.53014	4.24
668.5422	2.94
668.55425	3.84
668.56631	8.39
668.57836	1.74
668.59041	9.79
668.60246	0.79
668.6145	-8.31
668.62654	-6.96
668.63858	4.14
668.65062	8.09
668.66265	13.24
668.67468	0.59
668.68671	3.54
668.69874	19.89
668.71076	9.94
668.72278	4.79
668.7348	2.49
668.74682	-1.96
668.75883	0.39
668.77085	-2.96
668.78286	-9.61
668.79486	1.59
668.80687	6.79
668.81887	2.69
668.83087	8.64
668.84287	-3.36
668.85486	7.79
668.86685	-10.11
668.87884	-5.61
668.89083	8.34
668.90282	11.44
668.9148	2.99
668.92678	0.49
668.93876	3.09
668.95073	5.89
668.9627	5.69
668.97468	5.19
668.98664	11.09
668.99861	14.44
669.01057	11.59
669.02253	9.44
669.03449	13.64
669.04645	2.89
669.0584	4.64
669.07035	5.54
669.0823	2.54
669.09424	-7.11
669.10619	-4.81
669.11813	5.34
669.13007	9.59
669.142	11.49
669.15393	15.24
669.16587	7.59
669.17779	-0.61
669.18972	-6.26
669.20164	-5.11
669.21356	3.39
669.22548	4.19
669.2374	6.24
669.24931	6.14
669.26123	-1.26
669.27313	6.04
669.28504	8.09
669.29694	-1.46
669.30885	2.04
669.32074	8.44
669.33264	12.79
669.34454	1.49
669.35643	-3.71
669.36832	-2.96
669.3802	5.04
669.39209	-2.51
669.40397	-1.51
669.41585	-1.76
669.42773	-6.56
669.4396	-9.86
669.45147	-10.36
669.46334	-2.71
669.47521	4.34
669.48707	-1.36
669.49894	-2.36
669.5108	6.19
669.52265	4.29
669.53451	7.39
669.54636	-1.41
669.55821	9.04
669.57006	-0.31
669.5819	-8.41
669.59375	-2.21
669.60559	3.99
669.61742	3.19
669.62926	-1.81
669.64109	0.64
669.65292	8.24
669.66475	5.44
669.67658	0.79
669.6884	-2.21
669.70022	0.24
669.71204	15.49
669.72385	6.64
669.73567	2.29
669.74748	2.64
669.75928	2.39
669.77109	5.19
669.78289	2.19
669.79469	5.44
669.80649	3.84
669.81829	-1.96
669.83008	7.69
669.84187	-1.76
669.85366	-3.76
669.86545	1.79
669.87723	13.49
669.88901	15.44
669.90079	9.84
669.91257	7.24
669.92434	15.94
669.93611	23.59
669.94788	15.79
669.95965	10.64
669.97141	-4.06
669.98317	-0.81
669.99493	7.99
670.00669	2.59
670.01844	4.69
670.0302	7.64
670.04194	-0.41
670.05369	12.74
670.06544	-5.11
670.07718	1.59
670.08892	7.49
670.10065	4.69
670.11239	5.14
670.12412	10.89
670.13585	8.54
670.14758	-0.36
670.1593	0.09
670.17103	8.49
670.18275	19.59
670.19446	3.29
670.20618	7.54
670.21789	6.34
670.2296	5.64
670.24131	-3.16
670.25301	13.64
670.26472	17.54
670.27642	11.34
670.28811	3.39
670.29981	1.89
670.3115	-0.56
670.32319	-1.46
670.33488	-4.41
670.34656	-0.76
670.35825	12.79
670.36993	12.19
670.38161	-0.21
670.39328	-1.11
670.40496	3.69
670.41663	2.04
670.42829	9.84
670.43996	8.69
670.45162	5.99
670.46328	-1.71
670.47494	-4.31
670.4866	1.74
670.49825	11.54
670.5099	7.39
670.52155	1.64
670.5332	10.84
670.54484	1.49
670.55648	-3.11
670.56812	11.29
670.57976	3.09
670.59139	-4.46
670.60302	-0.96
670.61465	3.84
670.62628	-0.31
670.6379	0.54
670.64952	6.54
670.66114	-2.46
670.67276	-7.16
670.68438	2.49
670.69599	9.14
670.7076	2.09
670.7192	5.64
670.73081	20.84
670.74241	20.44
670.75401	6.64
670.76561	9.44
670.7772	6.69
670.78879	-0.26
670.80038	-2.56
670.81197	-1.96
670.82355	5.04
670.83514	8.69
670.84672	-0.46
670.85829	0.29
670.86987	-1.66
670.88144	3.29
670.89301	-3.96
670.90458	-6.91
670.91614	-5.26
670.92771	4.44
670.93927	8.39
670.95083	4.84
670.96238	2.29
670.97393	-4.61
670.98548	-0.11
670.99703	-6.31
671.00858	-5.66
671.02012	-3.06
671.03166	-8.41
671.0432	-3.71
671.05473	4.89
671.06627	3.24
671.0778	-2.26
671.08933	-0.56
671.10085	6.24
671.11238	10.04
671.1239	5.94
671.13542	8.74
671.14693	2.54
671.15845	-2.56
671.16996	7.64
671.18147	15.39
671.19297	10.59
671.20448	13.24
671.21598	0.69
671.22748	-2.26
671.23897	3.34
671.25047	-1.11
671.26196	3.09
671.27345	-2.46
671.28493	-1.71
671.29642	-2.61
671.3079	-1.56
671.31938	-2.96
671.33085	-2.76
671.34233	9.69
671.3538	13.99
671.36527	5.39
671.37674	-8.61
671.3882	-7.01
671.39966	-5.16
671.41112	1.59
671.42258	-6.16
671.43404	5.04
671.44549	12.99
671.45694	3.39
671.46838	11.29
671.47983	8.29
671.49127	0.84
671.50271	12.79
671.51415	6.84
671.52558	7.89
671.53702	9.49
671.54845	13.34
671.55987	4.09
671.5713	3.69
671.58272	5.74
671.59414	11.04
671.60556	25.49
671.61698	15.84
671.62839	4.89
671.6398	5.14
671.65121	-0.11
671.66261	-0.86
671.67402	-8.71
671.68542	-2.71
671.69681	-8.91
671.70821	-8.81
671.7196	-0.76
671.73099	-2.26
671.74238	2.24
671.75377	6.39
671.76515	3.54
671.77653	-1.76
671.78791	2.49
671.79929	15.99
671.81066	13.79
671.82203	15.89
671.8334	0.39
671.84477	4.64
671.85613	5.49
671.86749	5.49
671.87885	15.74
671.89021	27.24
671.90156	2.14
671.91291	-4.66
671.92426	-10.41
671.93561	-0.61
671.94695	1.19
671.9583	1.44
671.96963	13.99
671.98097	11.09
671.99231	7.04
672.00364	-9.96
672.01497	2.94
672.02629	6.34
672.03762	1.59
672.04894	-4.21
672.06026	-5.76
672.07158	-6.41
672.08289	-4.36
672.0942	-0.76
672.10551	17.54
672.11682	31.89
672.12813	12.09
672.13943	2.14
672.15073	-2.76
672.16203	0.34
672.17332	-0.96
672.18461	1.79
672.1959	16.09
672.20719	13.19
672.21848	17.14
672.22976	15.89
672.24104	14.19
672.25232	3.54
672.26359	3.84
672.27487	1.54
672.28614	8.49
672.29741	7.89
672.30867	-3.01
672.31993	-1.21
672.33119	1.04
672.34245	1.64
672.35371	-7.46
672.36496	1.09
672.37621	1.89
672.38746	-5.36
672.39871	0.74
672.40995	-0.61
672.42119	9.74
672.43243	21.29
672.44367	17.64
672.4549	1.99
672.46613	7.29
672.47736	4.99
672.48859	11.64
672.49981	5.64
672.51103	-0.01
672.52225	3.59
672.53347	3.14
672.54468	2.79
672.55589	12.24
672.5671	2.94
672.57831	3.44
672.58951	9.99
672.60072	8.14
672.61191	-1.76
672.62311	2.79
672.63431	1.94
672.6455	7.79
672.65669	5.64
672.66787	-2.76
672.67906	-1.56
672.69024	-0.51
672.70142	0.34
672.7126	3.49
672.72377	-5.76
672.73494	-6.21
672.74611	4.14
672.75728	0.89
672.76845	6.04
672.77961	5.64
672.79077	1.79
672.80193	-4.51
672.81308	3.69
672.82423	7.64
672.83539	10.19
672.84653	5.64
672.85768	0.79
672.86882	1.09
672.87996	6.34
672.8911	-1.86
672.90223	3.69
672.91337	0.79
672.9245	1.24
672.93563	2.24
672.94675	12.19
672.95788	14.69
672.969	1.49
672.98011	9.54
672.99123	12.79
673.00234	1.34
673.01345	-1.26
673.02456	-2.46
673.03567	0.79
673.04677	6.84
673.05787	-0.06
673.06897	-0.46
673.08007	3.59
673.09116	3.79
673.10225	-7.71
673.11334	6.74
673.12443	17.69
673.13551	16.19
673.14659	12.14
673.15767	2.19
673.16875	1.19
673.17982	-0.26
673.1909	-1.36
673.20196	4.24
673.21303	-2.86
673.2241	3.19
673.23516	11.59
673.24622	5.14
673.25727	6.94
673.26833	4.89
673.27938	11.84
673.29043	10.09
673.30148	19.24
673.31252	9.99
673.32356	5.44
673.3346	1.79
673.34564	4.34
673.35668	0.04
673.36771	-6.71
673.37874	4.19
673.38977	10.14
673.40079	14.44
673.41181	5.89
673.42283	7.79
673.43385	0.84
673.44487	6.19
673.45588	-0.66
673.46689	-5.11
673.4779	9.74
673.4889	13.84
673.4999	4.89
673.51091	4.94
673.5219	9.64
673.5329	22.34
673.54389	13.99
673.55488	3.89
673.56587	10.54
673.57686	9.74
673.58784	4.94
673.59882	13.69
673.6098	3.84
673.62077	13.69
673.63175	33.24
673.64272	17.09
673.65369	-0.81
673.66465	3.54
673.67562	0.49
673.68658	9.69
673.69754	1.79
673.70849	8.69
673.71945	15.74
673.7304	18.94
673.74135	28.44
673.75229	23.34
673.76324	27.79
673.77418	5.54
673.78512	9.34
673.79605	6.64
673.80699	13.24
673.81792	5.64
673.82885	12.89
673.83978	15.19
673.8507	14.29
673.86162	6.09
673.87254	0.14
673.88346	10.44
673.89437	8.19
673.90529	10.34
673.9162	16.79
673.9271	7.69
673.93801	12.94
673.94891	0.49
673.95981	-1.86
673.97071	4.49
673.9816	6.19
673.99249	7.74
674.00338	8.89
674.01427	2.04
674.02516	1.24
674.03604	-4.36
674.04692	1.24
674.0578	6.49
674.06867	8.09
674.07954	11.84
674.09042	23.09
674.10128	-3.76
674.11215	-8.06
674.12301	2.19
674.13387	5.34
674.14473	-0.06
674.15559	4.09
674.16644	2.19
674.17729	-3.41
674.18814	-0.56
674.19898	2.94
674.20983	-4.26
674.22067	-1.41
674.23151	1.89
674.24234	-1.86
674.25318	5.59
674.26401	18.44
674.27483	11.09
674.28566	-4.11
674.29648	-3.31
674.30731	-1.31
674.31812	0.09
674.32894	0.74
674.33975	7.64
674.35057	4.94
674.36137	3.09
674.37218	8.94
674.38299	-3.21
674.39379	-5.41
674.40459	12.99
674.41538	11.79
674.42618	5.34
674.43697	-1.66
674.44776	-2.36
674.45854	3.69
674.46933	11.59
674.48011	10.04
674.49089	-0.46
674.50167	-0.81
674.51244	-2.26
674.52321	-3.91
674.53398	-12.36
674.54475	-5.51
674.55552	8.04
674.56628	3.94
674.57704	0.79
674.5878	4.84
674.59855	2.64
674.6093	8.34
674.62005	8.24
674.6308	6.74
674.64155	-0.51
674.65229	0.54
674.66303	2.24
674.67377	10.54
674.6845	12.89
674.69523	20.54
674.70596	10.24
674.71669	1.29
674.72742	-3.61
674.73814	-5.51
674.74886	2.29
674.75958	0.69
674.77029	5.89
674.78101	-2.81
674.79172	8.99
674.80243	7.44
674.81313	7.94
674.82384	17.39
674.83454	5.94
674.84524	-0.21
674.85593	3.64
674.86663	6.94
674.87732	-3.41
674.888	0.49
674.89869	1.64
674.90937	6.29
674.92006	11.39
674.93073	7.94
674.94141	5.14
674.95208	8.14
674.96276	21.69
674.97343	14.74
674.98409	15.44
674.99476	15.59
675.00542	1.09
675.01608	-0.06
675.02673	-0.96
675.03739	1.64
675.04804	6.14
675.05869	15.84
675.06934	13.74
675.07998	15.39
675.09062	-6.81
675.10126	-8.51
675.1119	-2.21
675.12253	14.24
675.13317	15.44
675.1438	10.74
675.15442	2.84
675.16505	3.19
675.17567	11.64
675.18629	20.79
675.19691	12.04
675.20752	7.14
675.21813	8.19
675.22874	5.69
675.23935	10.84
675.24996	7.94
675.26056	12.14
675.27116	9.09
675.28176	6.84
675.29235	6.89
675.30295	7.09
675.31354	6.44
675.32412	5.29
675.33471	-7.41
675.34529	-1.81
675.35587	0.19
675.36645	-11.16
675.37703	-6.06
675.3876	0.39
675.39817	0.79
675.40874	5.39
675.41931	8.99
675.42987	15.79
675.44043	9.79
675.45099	5.79
675.46154	12.84
675.4721	8.24
675.48265	10.09
675.4932	14.69
675.50374	10.54
675.51429	5.49
675.52483	6.39
675.53537	-3.46
675.5459	1.14
675.55644	13.94
675.56697	7.14
675.5775	3.34
675.58803	-1.06
675.59855	3.74
675.60907	0.34
675.61959	-4.96
675.63011	-1.36
675.64062	-3.81
675.65113	0.59
675.66164	11.14
675.67215	-1.21
675.68265	0.59
675.69316	1.74
675.70366	2.29
675.71415	17.04
675.72465	21.69
675.73514	11.39
675.74563	17.29
675.75612	2.44
675.7666	-2.66
675.77708	1.79
675.78756	4.34
675.79804	1.19
675.80852	11.59
675.81899	21.89
675.82946	8.94
675.83993	9.14
675.85039	11.69
675.86085	12.64
675.87131	15.64
675.88177	7.69
675.89223	12.34
675.90268	15.49
675.91313	7.44
675.92358	8.24
675.93402	-1.91
675.94447	7.14
675.95491	12.84
675.96535	-1.36
675.97578	8.09
675.98622	20.09
675.99665	-0.51
676.00707	7.64
676.0175	11.94
676.02792	7.39
676.03835	5.24
676.04876	6.39
676.05918	2.89
676.06959	5.14
676.08	19.69
676.09041	11.49
676.10082	2.09
676.11122	2.34
676.12162	49.29
676.13202	102.44
676.14242	20.99
676.15281	0.59
676.16321	-4.56
676.17359	-0.66
676.18398	-7.16
676.19437	7.24
676.20475	-0.01
676.21513	-0.36
676.2255	8.09
676.23588	15.24
676.24625	11.19
676.25662	-1.11
676.26699	-4.36
676.27735	3.39
676.28771	18.34
676.29807	10.24
676.30843	8.54
676.31878	3.84
676.32914	6.74
676.33949	14.79
676.34983	17.89
676.36018	5.59
676.37052	-0.26
676.38086	-4.66
676.3912	-0.51
676.40153	5.64
676.41187	13.84
676.4222	7.99
676.43252	9.09
676.44285	20.64
676.45317	7.09
676.46349	-2.91
676.47381	3.44
676.48413	11.84
676.49444	7.14
676.50475	12.79
676.51506	11.09
676.52536	17.14
676.53567	9.34
676.54597	12.39
676.55626	12.44
676.56656	5.04
676.57685	3.14
676.58714	12.19
676.59743	12.14
676.60772	6.84
676.618	-0.51
676.62828	2.19
676.63856	-7.81
676.64884	-3.51
676.65911	1.34
676.66938	-3.11
676.67965	2.29
676.68992	16.24
676.70018	12.24
676.71044	9.09
676.7207	26.84
676.73096	16.74
676.74121	10.49
676.75146	13.74
676.76171	17.79
676.77196	4.59
676.7822	-1.61
676.79245	3.09
676.80269	10.64
676.81292	-4.66
676.82316	-5.81
676.83339	7.49
676.84362	22.89
676.85385	2.14
676.86407	7.59
676.87429	5.54
676.88451	11.54
676.89473	11.19
676.90494	-13.41
676.91516	-5.31
676.92537	-3.11
676.93557	8.84
676.94578	6.54
676.95598	2.99
676.96618	-2.11
676.97638	2.69
676.98657	1.79
676.99677	-2.66
677.00696	8.74
677.01714	19.09
677.02733	13.09
677.03751	7.19
677.04769	4.79
677.05787	3.84
677.06805	11.34
677.07822	6.69
677.08839	10.09
677.09856	-1.56
677.10872	1.99
677.11889	7.64
677.12905	9.94
677.13921	7.49
677.14936	2.54
677.15951	-0.36
677.16967	3.34
677.17981	6.79
677.18996	11.84
677.2001	-2.16
677.21025	-6.86
677.22038	4.59
677.23052	0.44
677.24065	-3.11
677.25078	4.79
677.26091	13.99
677.27104	10.49
677.28116	1.24
677.29129	4.54
677.3014	4.84
677.31152	17.39
677.32164	41.59
677.33175	2.64
677.34186	2.84
677.35196	9.24
677.36207	13.84
677.37217	12.94
677.38227	16.64
677.39236	9.84
677.40246	1.19
677.41255	-4.81
677.42264	1.04
677.43273	7.69
677.44281	9.94
677.45289	14.59
677.46297	0.44
677.47305	-4.01
677.48313	-1.06
677.4932	1.99
677.50327	0.44
677.51334	2.69
677.5234	6.74
677.53346	15.99
677.54352	6.64
677.55358	4.24
677.56364	10.49
677.57369	20.69
677.58374	9.24
677.59379	-5.41
677.60383	-1.76
677.61388	3.49
677.62392	5.69
677.63395	5.39
677.64399	8.89
677.65402	13.94
677.66405	7.34
677.67408	-0.81
677.68411	2.19
677.69413	6.64
677.70415	7.39
677.71417	10.44
677.72419	-1.46
677.7342	3.59
677.74421	-1.66
677.75422	-3.16
677.76422	0.24
677.77423	8.94
677.78423	15.09
677.79423	3.04
677.80422	6.99
677.81422	4.14
677.82421	-1.91
677.8342	2.24
677.84418	3.69
677.85417	7.04
677.86415	14.59
677.87413	5.84
677.88411	-3.96
677.89408	8.19
677.90405	7.79
677.91402	9.44
677.92399	11.04
677.93395	21.79
677.94391	12.99
677.95387	1.54
677.96383	4.74
677.97378	8.69
677.98374	4.14
677.99369	8.19
678.00363	16.49
678.01358	1.94
678.02352	1.94
678.03346	5.84
678.0434	-0.36
678.05333	-2.16
678.06326	5.19
678.07319	4.94
678.08312	5.64
678.09305	17.79
678.10297	5.94
678.11289	-0.31
678.12281	7.29
678.13272	3.34
678.14264	0.74
678.15255	4.49
678.16245	5.59
678.17236	0.14
678.18226	-0.76
678.19216	-1.91
678.20206	-8.21
678.21196	-1.36
678.22185	10.84
678.23174	10.14
678.24163	12.84
678.25151	10.14
678.2614	23.24
678.27128	22.74
678.28116	6.94
678.29103	13.04
678.30091	9.39
678.31078	1.84
678.32065	-1.86
678.33051	6.34
678.34037	3.44
678.35024	-4.11
678.36009	-1.01
678.36995	2.44
678.37981	5.09
678.38966	-7.81
678.39951	-0.71
678.40935	4.59
678.4192	2.79
678.42904	0.09
678.43888	6.19
678.44871	2.29
678.45855	10.34
678.46838	12.84
678.47821	1.39
678.48804	3.89
678.49786	22.29
678.50768	25.49
678.5175	8.74
678.52732	13.34
678.53713	9.29
678.54694	6.24
678.55675	-5.86
678.56656	-4.36
678.57637	-3.46
678.58617	1.39
678.59597	15.09
678.60577	8.24
678.61556	-3.81
678.62535	3.59
678.63514	18.94
678.64493	12.04
678.65472	4.74
678.6645	12.94
678.67428	6.39
678.68406	6.19
678.69383	4.89
678.7036	-1.11
678.71337	6.79
678.72314	10.09
678.73291	9.09
678.74267	0.54
678.75243	-1.11
678.76219	1.89
678.77195	5.99
678.7817	2.59
678.79145	4.24
678.8012	3.64
678.81094	1.04
678.82069	3.84
678.83043	36.49
678.84017	65.29
678.8499	1.79
678.85964	3.09
678.86937	6.79
678.87909	10.14
678.88882	6.79
678.89854	1.09
678.90827	5.59
678.91798	1.59
678.9277	2.04
678.93742	-4.56
678.94713	5.34
678.95684	6.59
678.96654	7.39
678.97625	5.14
678.98595	8.14
678.99565	-1.11
679.00534	-4.81
679.01504	-0.36
679.02473	-2.71
679.03442	-2.51
679.04411	9.89
679.05379	7.54
679.06347	-5.11
679.07315	-5.76
679.08283	3.19
679.0925	0.54
679.10218	6.69
679.11185	0.49
679.12151	2.44
679.13118	7.84
679.14084	-1.71
679.1505	-1.26
679.16016	1.29
679.16981	-3.26
679.17946	9.24
679.18911	7.64
679.19876	-6.31
679.20841	9.39
679.21805	13.54
679.22769	9.09
679.23733	11.84
679.24696	18.19
679.2566	6.19
679.26623	3.74
679.27585	9.64
679.28548	-1.91
679.2951	5.44
679.30472	-0.36
679.31434	-5.81
679.32396	-0.71
679.33357	-5.26
679.34318	15.44
679.35279	24.94
679.3624	5.84
679.372	9.04
679.3816	12.69
679.3912	-0.26
679.40079	24.54
679.41039	16.24
679.41998	6.59
679.42957	3.04
679.43915	-1.86
679.44874	4.84
679.45832	18.19
679.4679	7.04
679.47747	-5.16
679.48705	-3.96
679.49662	8.39
679.50619	10.64
679.51575	1.49
679.52532	2.54
679.53488	13.19
679.54444	4.04
679.554	3.34
679.56355	7.64
679.5731	13.94
679.58265	3.59
679.5922	-1.01
679.60174	8.04
679.61129	10.49
679.62083	2.99
679.63036	-6.71
679.6399	0.94
679.64943	9.34
679.65896	4.69
679.66849	-1.71
679.67801	5.79
679.68753	10.19
679.69705	20.49
679.70657	24.99
679.71609	15.59
679.7256	18.39
679.73511	11.84
679.74462	-0.51
679.75412	-2.06
679.76362	7.44
679.77312	8.99
679.78262	2.14
679.79212	5.19
679.80161	6.39
679.8111	-2.46
679.82059	-3.86
679.83007	8.74
679.83956	9.49
679.84904	4.89
679.85852	8.99
679.86799	-0.31
679.87747	2.94
679.88694	-1.26
679.8964	0.79
679.90587	0.09
679.91533	7.79
679.92479	5.19
679.93425	5.14
679.94371	15.94
679.95316	10.59
679.96261	10.84
679.97206	8.24
679.98151	3.19
679.99095	-0.76
680.00039	-1.51
680.00983	0.24
680.01927	8.54
680.0287	1.59
680.03814	17.09
680.04756	2.59
680.05699	-0.71
680.06641	5.34
680.07584	1.29
680.08526	-5.16
680.09467	2.99
680.10409	-3.06
680.1135	-6.71
680.12291	0.29
680.13232	7.34
680.14172	16.84
680.15112	8.34
680.16052	0.04
680.16992	4.34
680.17931	8.74
680.18871	10.44
680.1981	-3.86
680.20748	0.34
680.21687	0.84
