Data from HR4C25001_14-14-51-621.txt Node
Date: Mon Jun 15 14:14:51 CDT 2026
User: jam28248
Spectrometer: HR4C2500
Trigger mode: 4
Integration Time (sec): 7.500000E-2
Scans to average: 20
Electric dark correction enabled: true
Nonlinearity correction enabled: false
Boxcar width: 0
XAxis mode: Wavelengths
Number of Pixels in Spectrum: 3648
>>>>>Begin Spectral Data<<<<<
629.66646	-15.6
629.6848	-15.6
629.70313	-15.6
629.72147	-49.85
629.7398	-36.8
629.75812	-2.7
629.77645	2.25
629.79477	6.25
629.81309	-3.8
629.83141	-8.95
629.84972	6.75
629.86803	2.8
629.88634	12.85
629.90465	-9
629.92295	-6.05
629.94126	-5.2
629.95956	2.55
629.97785	2.2
629.99615	-4.7
630.01444	16.6
630.03273	13.6
630.05102	13.9
630.0693	8.15
630.08759	14.25
630.10587	4.3
630.12415	2.85
630.14242	9.45
630.16069	-5.2
630.17896	-3.05
630.19723	8.9
630.2155	21.1
630.23376	65.3
630.25202	28.75
630.27028	17.75
630.28854	9.75
630.30679	2.15
630.32504	2.7
630.34329	6.45
630.36153	11.15
630.37978	21
630.39802	9.7
630.41626	2.95
630.43449	-3.2
630.45273	1.15
630.47096	12.35
630.48919	6.85
630.50741	9.45
630.52564	5.05
630.54386	15.55
630.56208	20.9
630.58029	8.5
630.59851	5.95
630.61672	10.8
630.63493	19.55
630.65313	11.85
630.67134	8.25
630.68954	4.5
630.70774	13.6
630.72594	18.15
630.74413	2.8
630.76232	-3
630.78051	-1.95
630.7987	3.45
630.81688	11.2
630.83507	19.45
630.85325	12.35
630.87142	6.5
630.8896	5.25
630.90777	0
630.92594	-4.8
630.94411	18
630.96227	27.85
630.98043	37.85
630.99859	14.95
631.01675	7.5
631.03491	0
631.05306	-1.85
631.07121	9.3
631.08936	11.6
631.1075	2.4
631.12564	9.05
631.14379	9.25
631.16192	15.35
631.18006	13.9
631.19819	9.35
631.21632	8.3
631.23445	-1.9
631.25258	1.9
631.2707	8.55
631.28882	9.8
631.30694	10.15
631.32505	4.8
631.34317	12.5
631.36128	9.55
631.37939	13.7
631.39749	9.1
631.4156	3.35
631.4337	-4.5
631.4518	6.3
631.46989	-2.85
631.48799	1.45
631.50608	4.1
631.52417	-5.8
631.54225	3.2
631.56034	5.45
631.57842	7.95
631.5965	5.6
631.61457	-9.65
631.63265	-2.3
631.65072	8.65
631.66879	1.15
631.68685	15.3
631.70492	22.4
631.72298	16.35
631.74104	4.35
631.7591	3
631.77715	6
631.7952	13.25
631.81325	15.95
631.8313	2.7
631.84934	14.1
631.86739	17.1
631.88543	7.35
631.90346	9.85
631.9215	-1.45
631.93953	8.95
631.95756	2.6
631.97559	5.35
631.99361	-2.6
632.01163	-4.55
632.02965	8.35
632.04767	12.7
632.06569	15.45
632.0837	6.75
632.10171	0.7
632.11972	-2.2
632.13772	6.55
632.15573	15.7
632.17373	2.7
632.19172	-3.7
632.20972	0.6
632.22771	-0.9
632.2457	-1.2
632.26369	4.5
632.28168	15.5
632.29966	3.2
632.31764	7.3
632.33562	6.9
632.35359	8.1
632.37157	5.6
632.38954	6.7
632.40751	5.6
632.42547	-4.5
632.44344	14.1
632.4614	6.4
632.47936	-0.95
632.49731	-0.3
632.51527	1.85
632.53322	12.05
632.55117	5.45
632.56911	2.15
632.58706	0.8
632.605	1.5
632.62294	8.9
632.64087	10.9
632.65881	-5.6
632.67674	1.45
632.69467	0.4
632.7126	0.05
632.73052	9.75
632.74844	7.25
632.76636	11.35
632.78428	15.75
632.80219	24.75
632.8201	29.85
632.83801	8.7
632.85592	6.55
632.87383	18.95
632.89173	9.95
632.90963	-0.65
632.92753	7.7
632.94542	6.35
632.96331	10.2
632.9812	8.15
632.99909	4
633.01697	1.15
633.03486	6.95
633.05274	2.45
633.07061	3.25
633.08849	9.1
633.10636	10.55
633.12423	13.95
633.1421	5.15
633.15997	20.75
633.17783	7.85
633.19569	11.65
633.21355	15.5
633.2314	15.45
633.24926	-1.6
633.26711	3.4
633.28495	10.65
633.3028	0.05
633.32064	4.8
633.33848	11.1
633.35632	22.6
633.37416	17.25
633.39199	8.35
633.40982	1.45
633.42765	9.45
633.44548	8.2
633.4633	-1.6
633.48112	0.25
633.49894	-3.75
633.51676	4
633.53457	1.55
633.55238	10.1
633.57019	1.25
633.588	-3.85
633.6058	-2.7
633.6236	9.1
633.6414	9.05
633.6592	-2.2
633.67699	-3.6
633.69478	0.4
633.71257	15.4
633.73036	16.85
633.74815	-1
633.76593	1.7
633.78371	7.45
633.80148	2.7
633.81926	0.8
633.83703	1.4
633.8548	-10.85
633.87257	-10.2
633.89033	-2.05
633.90809	5.8
633.92585	3.85
633.94361	-0.9
633.96137	3.85
633.97912	10.65
633.99687	-12.2
634.01462	4.85
634.03236	16.75
634.0501	13.95
634.06784	-4.05
634.08558	15.9
634.10332	15
634.12105	2.75
634.13878	12.7
634.15651	13
634.17423	7.25
634.19196	1.85
634.20968	4.1
634.22739	14.7
634.24511	13.85
634.26282	13.8
634.28053	21.9
634.29824	8.25
634.31595	8.15
634.33365	5.6
634.35135	-5.4
634.36905	-7.8
634.38675	7.1
634.40444	7.3
634.42213	-1.8
634.43982	2.1
634.4575	-0.7
634.47519	12.9
634.49287	25.45
634.51055	6.9
634.52822	5.45
634.5459	7.35
634.56357	3.35
634.58124	-8.6
634.59891	5.25
634.61657	7.45
634.63423	15.25
634.65189	16.95
634.66955	3.7
634.6872	14.05
634.70485	5.25
634.7225	0.85
634.74015	12.85
634.75779	5.85
634.77544	3.2
634.79307	-0.25
634.81071	13.5
634.82835	8.25
634.84598	0.5
634.86361	-1.7
634.88123	8.4
634.89886	4.2
634.91648	2.4
634.9341	2.65
634.95172	9.35
634.96933	4.75
634.98695	8
635.00456	5.1
635.02216	10.7
635.03977	11.05
635.05737	1.6
635.07497	-2.95
635.09257	5.25
635.11016	11.55
635.12776	11.95
635.14535	4.3
635.16294	18.2
635.18052	7.05
635.1981	10.9
635.21569	10.9
635.23326	4.5
635.25084	9.85
635.26841	-0.1
635.28598	5.1
635.30355	-0.2
635.32112	-3.05
635.33868	-7.95
635.35624	-8.2
635.3738	0.4
635.39136	-6
635.40891	-3.75
635.42646	5.05
635.44401	8.7
635.46155	-0.45
635.4791	4.25
635.49664	7.3
635.51418	15.05
635.53171	5.55
635.54925	6
635.56678	4.5
635.58431	9.85
635.60184	17.75
635.61936	19.05
635.63688	3.1
635.6544	9.8
635.67192	1.5
635.68943	7.65
635.70694	5.6
635.72445	5.65
635.74196	-3.85
635.75946	-3.8
635.77697	-0.2
635.79447	4.75
635.81196	13.1
635.82946	2.05
635.84695	-7.15
635.86444	4.8
635.88193	5.9
635.89941	11.65
635.91689	6.55
635.93437	4.85
635.95185	1.4
635.96933	-0.05
635.9868	11.85
636.00427	32.75
636.02174	12.05
636.0392	2.95
636.05666	18.9
636.07412	4.75
636.09158	2.3
636.10904	-0.25
636.12649	7.95
636.14394	5.35
636.16139	18.1
636.17883	4.35
636.19628	2.95
636.21372	-1.65
636.23116	0.7
636.24859	-0.7
636.26602	4.4
636.28345	10.45
636.30088	9.55
636.31831	5.15
636.33573	1.85
636.35315	4.2
636.37057	10
636.38799	8.3
636.4054	12.5
636.42281	12.9
636.44022	7.85
636.45763	-2.4
636.47503	-4.2
636.49243	-6.2
636.50983	-2.75
636.52723	2
636.54462	1.8
636.56201	1.55
636.5794	-5.05
636.59679	-5.2
636.61417	2.65
636.63155	0.05
636.64893	17.6
636.66631	15.05
636.68368	2.1
636.70106	-3.7
636.71843	-6.1
636.73579	-1.5
636.75316	4.4
636.77052	4.9
636.78788	9.2
636.80524	3.65
636.82259	-3.1
636.83994	-3.65
636.85729	-6.2
636.87464	-7.85
636.89198	-0.6
636.90933	17.75
636.92667	12.5
636.944	0.15
636.96134	-6.6
636.97867	-2.35
636.996	0.2
637.01333	1.6
637.03066	1
637.04798	-4.9
637.0653	1.65
637.08262	2.75
637.09993	-4.1
637.11724	-6
637.13455	6.85
637.15186	14.65
637.16917	12.25
637.18647	7.45
637.20377	11.7
637.22107	4.8
637.23837	9.05
637.25566	24.8
637.27295	5.8
637.29024	7.4
637.30752	-2.95
637.32481	0.95
637.34209	8.2
637.35937	17.8
637.37664	9.55
637.39392	9.1
637.41119	3.6
637.42846	6.55
637.44572	-4.05
637.46299	3.15
637.48025	22.05
637.49751	8.85
637.51476	0.8
637.53202	8.25
637.54927	0.15
637.56652	5.85
637.58376	5.75
637.60101	0.75
637.61825	10.25
637.63549	15.25
637.65273	8.65
637.66996	3.1
637.68719	6.1
637.70442	3.6
637.72165	4.05
637.73887	8.15
637.7561	10.35
637.77332	8.6
637.79053	1.45
637.80775	10
637.82496	7.1
637.84217	7.15
637.85938	1.5
637.87658	4.95
637.89378	0.9
637.91098	-3.4
637.92818	-5.4
637.94538	8.7
637.96257	13.65
637.97976	7.05
637.99695	3.75
638.01413	-7.65
638.03132	-1.5
638.0485	2.05
638.06567	-8.05
638.08285	2.3
638.10002	3.7
638.11719	2.65
638.13436	1.05
638.15153	2.9
638.16869	-5.25
638.18585	-0.95
638.20301	-7.25
638.22016	-12.1
638.23732	-14.15
638.25447	-7.6
638.27162	-2.4
638.28876	-6.15
638.30591	-8.85
638.32305	1.95
638.34019	12.65
638.35732	12.7
638.37446	15.65
638.39159	-2.35
638.40872	-7.1
638.42584	-3
638.44297	-2.8
638.46009	-4.65
638.47721	-0.75
638.49432	13.95
638.51144	6.5
638.52855	5.25
638.54566	-6.95
638.56276	-0.55
638.57987	5.35
638.59697	1.95
638.61407	-2.4
638.63117	-2.6
638.64826	0.3
638.66535	3.9
638.68244	1.35
638.69953	1.9
638.71661	8.2
638.7337	2.35
638.75078	4.1
638.76785	2.45
638.78493	0.3
638.802	-6.2
638.81907	-0.05
638.83614	2.55
638.8532	11.1
638.87026	-2.05
638.88732	-7.25
638.90438	0.65
638.92144	7.9
638.93849	13.1
638.95554	12
638.97259	3.1
638.98963	8
639.00668	12.4
639.02372	8.15
639.04075	15.75
639.05779	12.55
639.07482	7.75
639.09185	10.4
639.10888	-11.4
639.12591	-11
639.14293	-2.5
639.15995	1.65
639.17697	22
639.19398	22.5
639.211	22.55
639.22801	15.95
639.24502	2.4
639.26202	-0.1
639.27903	-2.9
639.29603	3.65
639.31303	13.05
639.33002	-2.55
639.34702	6.25
639.36401	2.55
639.381	3.85
639.39798	6.5
639.41497	7.8
639.43195	12.9
639.44893	-1.9
639.4659	5.8
639.48288	13.4
639.49985	15.55
639.51682	2.85
639.53379	-6.25
639.55075	-7.9
639.56771	-16.85
639.58467	-6.1
639.60163	2.6
639.61858	1.9
639.63553	8.7
639.65248	8.2
639.66943	-4.3
639.68638	-2.55
639.70332	9.7
639.72026	14.25
639.73719	3.8
639.75413	10.55
639.77106	17.25
639.78799	30.35
639.80492	21.45
639.82184	4.3
639.83877	-1.5
639.85569	5.55
639.8726	4
639.88952	8.6
639.90643	-5
639.92334	3.8
639.94025	7.2
639.95716	7.9
639.97406	3.15
639.99096	10.95
640.00786	4.55
640.02475	5.35
640.04165	0.9
640.05854	3.05
640.07542	1.6
640.09231	11
640.10919	9.25
640.12607	11.1
640.14295	-1.15
640.15983	-1.5
640.1767	3.15
640.19357	-0.55
640.21044	-0.65
640.22731	6.1
640.24417	9.05
640.26103	12.85
640.27789	11.1
640.29475	1.65
640.3116	-9.8
640.32845	-3.75
640.3453	3.4
640.36215	-0.2
640.37899	4.5
640.39583	19.8
640.41267	23.65
640.42951	-0.15
640.44634	-10.1
640.46317	2.35
640.48	-2.35
640.49683	-5.6
640.51365	-3.25
640.53048	2
640.5473	4.85
640.56411	5
640.58093	16.15
640.59774	15.75
640.61455	3.5
640.63136	2.05
640.64816	-4.75
640.66496	-4.4
640.68176	12.25
640.69856	-5.5
640.71535	-1.1
640.73215	1.95
640.74894	0.65
640.76572	14.45
640.78251	15.5
640.79929	8.45
640.81607	10.65
640.83285	5.35
640.84963	11.95
640.8664	16.9
640.88317	24.95
640.89994	7.3
640.9167	1.95
640.93346	-6.25
640.95022	-2.9
640.96698	3.25
640.98374	-2.45
641.00049	-8.15
641.01724	-3.15
641.03399	-5.9
641.05074	-6.3
641.06748	-3.4
641.08422	7.9
641.10096	3.95
641.11769	11.05
641.13443	6.3
641.15116	-1.3
641.16789	1.15
641.18461	0.1
641.20134	18.25
641.21806	12.5
641.23478	0.65
641.25149	4.05
641.26821	12.45
641.28492	3.8
641.30163	2
641.31833	-4.85
641.33504	-0.95
641.35174	1.35
641.36844	7.85
641.38514	7.95
641.40183	5.6
641.41852	6.2
641.43521	5.95
641.4519	24.75
641.46858	14.7
641.48526	3.1
641.50194	3.5
641.51862	-1.9
641.53529	-1.95
641.55197	9.2
641.56864	18.2
641.5853	1.9
641.60197	-0.6
641.61863	6.3
641.63529	-5.1
641.65195	-4.75
641.6686	5.95
641.68526	7.95
641.70191	13.8
641.71855	19.05
641.7352	16.4
641.75184	5.65
641.76848	2
641.78512	0.6
641.80175	2.15
641.81839	10.05
641.83502	13.7
641.85164	13.8
641.86827	12.8
641.88489	8.8
641.90151	0.95
641.91813	2.6
641.93475	10.1
641.95136	3.9
641.96797	-3.95
641.98458	-5.35
642.00119	4.55
642.01779	4
642.03439	6.2
642.05099	4.1
642.06758	-6.05
642.08418	1.4
642.10077	5.8
642.11736	9.4
642.13394	5.85
642.15053	6.6
642.16711	-3.25
642.18369	-4.55
642.20026	8.25
642.21684	13.95
642.23341	14.15
642.24998	12
642.26654	17.2
642.28311	13.8
642.29967	3.4
642.31623	-5.7
642.33279	-0.2
642.34934	0.05
642.36589	-9.1
642.38244	-12.15
642.39899	48.85
642.41553	123.3
642.43207	18.6
642.44861	-10.95
642.46515	0.2
642.48169	4.9
642.49822	1.45
642.51475	4.65
642.53127	-3.45
642.5478	1.3
642.56432	11.55
642.58084	11.4
642.59736	4
642.61387	8.8
642.63039	14.45
642.6469	14.65
642.6634	24.6
642.67991	4.85
642.69641	4.8
642.71291	-0.7
642.72941	9.2
642.74591	15.6
642.7624	1.15
642.77889	2.05
642.79538	-3.5
642.81186	-5.4
642.82834	-9.75
642.84483	-3.35
642.8613	2.35
642.87778	-4.95
642.89425	10
642.91072	37.85
642.92719	3
642.94366	3.6
642.96012	17.1
642.97658	4.5
642.99304	6.05
643.0095	6.7
643.02595	0.15
643.0424	-3.6
643.05885	5.55
643.0753	-3.5
643.09174	-7.15
643.10818	-6.45
643.12462	-6.4
643.14106	-5.6
643.15749	-1.8
643.17392	2.1
643.19035	20.5
643.20678	16.2
643.2232	7.3
643.23962	16.7
643.25604	8
643.27246	-0.8
643.28887	0.8
643.30528	10.25
643.32169	11.6
643.3381	3.35
643.35451	7.3
643.37091	11.3
643.38731	3.45
643.4037	-4.45
643.4201	-2.2
643.43649	9.3
643.45288	20.9
643.46927	9.65
643.48565	5.65
643.50204	11.3
643.51842	8.85
643.53479	-2.5
643.55117	8.65
643.56754	3
643.58391	2.95
643.60028	0.4
643.61664	7.9
643.63301	10.25
643.64937	8.2
643.66572	5.15
643.68208	1.1
643.69843	4.65
643.71478	-3
643.73113	4.25
643.74748	1.3
643.76382	0.85
643.78016	-2.55
643.7965	3.85
643.81283	9.45
643.82917	14.7
643.8455	5.35
643.86183	17.05
643.87815	20.35
643.89448	13.45
643.9108	10.7
643.92712	5.85
643.94343	11.1
643.95974	-3.4
643.97606	-7.55
643.99236	5.35
644.00867	14.75
644.02497	7.65
644.04128	5.55
644.05758	9.35
644.07387	12.25
644.09017	6.3
644.10646	6.2
644.12275	1.8
644.13903	3.05
644.15532	2.45
644.1716	1.35
644.18788	23.9
644.20415	8.9
644.22043	6.85
644.2367	11.85
644.25297	4.75
644.26924	8.35
644.2855	7.15
644.30176	2.15
644.31802	3.2
644.33428	12.7
644.35054	16.75
644.36679	0.45
644.38304	3.3
644.39928	8.1
644.41553	11.7
644.43177	2.25
644.44801	-4.45
644.46425	-1.25
644.48048	4.95
644.49672	5.3
644.51295	5.1
644.52917	3.75
644.5454	12.15
644.56162	3.85
644.57784	7.8
644.59406	-0.85
644.61028	4.05
644.62649	1.8
644.6427	3
644.65891	0.25
644.67511	-4.1
644.69132	2.45
644.70752	11.45
644.72372	10.75
644.73991	5.45
644.7561	7.65
644.7723	14.6
644.78848	30.05
644.80467	23
644.82085	7.9
644.83703	10.75
644.85321	13.9
644.86939	10.75
644.88556	13.5
644.90173	18.45
644.9179	25.05
644.93407	28.75
644.95023	36
644.96639	19.65
644.98255	16.6
644.99871	7.6
645.01486	6
645.03102	11.1
645.04716	15.85
645.06331	15.75
645.07946	41.3
645.0956	75.15
645.11174	17.35
645.12787	19.7
645.14401	9.9
645.16014	14
645.17627	7.6
645.1924	7.85
645.20852	17.15
645.22464	11.35
645.24076	21
645.25688	29.95
645.27299	16.15
645.28911	13.35
645.30522	7.9
645.32132	7.1
645.33743	15.4
645.35353	17
645.36963	4.6
645.38573	5.15
645.40182	7.1
645.41792	2.9
645.43401	-0.5
645.45009	7.55
645.46618	14.9
645.48226	1.35
645.49834	0.45
645.51442	-4.45
645.5305	-2.5
645.54657	7.1
645.56264	10.8
645.57871	1.05
645.59477	6.7
645.61084	1.45
645.6269	10.35
645.64296	15.6
645.65901	15.25
645.67507	10.15
645.69112	6
645.70716	1.15
645.72321	0.3
645.73925	8.8
645.7553	8.15
645.77133	-4
645.78737	3.55
645.8034	13.5
645.81944	21.5
645.83546	7.95
645.85149	25.85
645.86751	11.75
645.88354	2.35
645.89955	0.65
645.91557	1.9
645.93159	-0.75
645.9476	4.15
645.96361	7.95
645.97961	6.8
645.99562	9.65
646.01162	13.55
646.02762	9.45
646.04361	3.45
646.05961	-3.55
646.0756	-1.4
646.09159	13.5
646.10758	1.95
646.12356	9.1
646.13954	12.55
646.15552	6.6
646.1715	18.55
646.18748	13.15
646.20345	2.95
646.21942	-1.4
646.23539	16.65
646.25135	24.65
646.26731	7.25
646.28327	12.35
646.29923	4.35
646.31519	20.4
646.33114	24.75
646.34709	15.2
646.36304	4
646.37898	-1.35
646.39493	-5.75
646.41087	-2.25
646.4268	4.1
646.44274	-0.65
646.45867	-1.45
646.4746	10.85
646.49053	6.3
646.50646	2.95
646.52238	-6.65
646.5383	-5
646.55422	-2.2
646.57014	3.3
646.58605	3.65
646.60196	8.25
646.61787	4.7
646.63377	5.7
646.64968	9.65
646.66558	6.2
646.68148	-0.75
646.69737	8.65
646.71327	5.25
646.72916	4
646.74505	5.5
646.76093	18.4
646.77682	14.3
646.7927	3.7
646.80858	1.7
646.82446	-5.95
646.84033	-0.85
646.8562	2.55
646.87207	1.35
646.88794	6.6
646.9038	-5.35
646.91966	1.3
646.93552	5.15
646.95138	1.95
646.96723	8.65
646.98309	17.05
646.99894	5.85
647.01478	5.6
647.03063	19.45
647.04647	5.25
647.06231	-3.75
647.07815	-4.8
647.09398	1.3
647.10981	5.35
647.12564	0.3
647.14147	6.55
647.1573	18.75
647.17312	7.35
647.18894	0.15
647.20476	-9.8
647.22057	-10.5
647.23638	-0.4
647.25219	1.95
647.268	-2.45
647.28381	-3.85
647.29961	14.5
647.31541	7.55
647.33121	1.7
647.34701	8.2
647.3628	4.75
647.37859	10.8
647.39438	7.5
647.41016	6.5
647.42595	4.25
647.44173	2.35
647.45751	1.85
647.47328	5.55
647.48905	5.85
647.50483	14.7
647.52059	9.4
647.53636	2.3
647.55212	-3.9
647.56789	12.6
647.58364	40.45
647.5994	7.95
647.61515	4.2
647.63091	10.2
647.64665	5.5
647.6624	1.95
647.67814	-5.5
647.69389	-5.7
647.70963	-4.2
647.72536	-12.5
647.7411	-7.5
647.75683	0
647.77256	8.4
647.78828	5.85
647.80401	3
647.81973	6.45
647.83545	10.3
647.85117	8.45
647.86688	3.95
647.88259	-1.35
647.8983	1.5
647.91401	13.65
647.92971	14.95
647.94542	1.2
647.96112	6.4
647.97681	12
647.99251	7.65
648.0082	11.85
648.02389	12.05
648.03958	2.5
648.05526	4.5
648.07095	0.6
648.08663	3.8
648.1023	-6.1
648.11798	-2.25
648.13365	-8.15
648.14932	0.35
648.16499	5.7
648.18066	4.25
648.19632	0.2
648.21198	-3.15
648.22764	-0.25
648.24329	5.35
648.25895	11.8
648.2746	-0.25
648.29025	3
648.30589	7
648.32153	8.35
648.33718	3.2
648.35281	14.8
648.36845	35.9
648.38408	72.4
648.39971	7.8
648.41534	-4
648.43097	4.6
648.44659	12.25
648.46221	16.45
648.47783	7.35
648.49345	-2.6
648.50906	7.6
648.52467	11.95
648.54028	-1.8
648.55589	-2.8
648.57149	12.35
648.5871	7.15
648.6027	0.75
648.61829	7.45
648.63389	1.25
648.64948	5.9
648.66507	7.85
648.68065	1.85
648.69624	7.85
648.71182	19.6
648.7274	20.85
648.74298	17.95
648.75855	20
648.77412	18.4
648.78969	4.5
648.80526	-7.3
648.82083	-1.45
648.83639	6.1
648.85195	-1.05
648.8675	2.7
648.88306	6.3
648.89861	3.85
648.91416	-0.2
648.92971	5.8
648.94526	16.85
648.9608	16.35
648.97634	12.8
648.99188	9.5
649.00741	6.75
649.02294	6.85
649.03847	7.05
649.054	-0.65
649.06953	6.25
649.08505	-2.4
649.10057	7.65
649.11609	-1.8
649.13161	7.8
649.14712	3.3
649.16263	0.35
649.17814	-0.8
649.19364	2.85
649.20915	21.35
649.22465	22.55
649.24015	19.75
649.25564	23.65
649.27114	11.05
649.28663	2.1
649.30212	-1.25
649.3176	3.6
649.33309	-6.25
649.34857	0.4
649.36405	10.1
649.37952	13.35
649.395	13.3
649.41047	15.25
649.42594	11.65
649.4414	2.85
649.45687	6.2
649.47233	-1.95
649.48779	3.9
649.50324	12.7
649.5187	15.8
649.53415	11.75
649.5496	11.05
649.56505	16.45
649.58049	11.8
649.59593	3.25
649.61137	3.55
649.62681	9.3
649.64224	0.2
649.65768	-2.5
649.67311	12.1
649.68853	17.4
649.70396	12.2
649.71938	12.3
649.7348	9.6
649.75022	22.5
649.76563	6.5
649.78105	9.25
649.79646	-3.85
649.81186	6.2
649.82727	15.45
649.84267	1.55
649.85807	7.85
649.87347	0
649.88886	1.5
649.90426	8.65
649.91965	5.8
649.93504	-0.3
649.95042	9.2
649.9658	0.05
649.98119	4.95
649.99656	6.85
650.01194	-0.35
650.02731	-0.45
650.04268	-1.2
650.05805	0.5
650.07342	1.75
650.08878	6.8
650.10414	8.95
650.1195	-3.2
650.13486	1.7
650.15021	-0.25
650.16556	10.2
650.18091	11
650.19626	11.15
650.2116	11.4
650.22694	3.6
650.24228	12.55
650.25762	8.55
650.27295	5.15
650.28828	1.05
650.30361	5.2
650.31894	2.8
650.33426	-0.4
650.34958	3.3
650.3649	23.85
650.38022	12.85
650.39553	-1.5
650.41085	3.75
650.42616	4.55
650.44146	6.35
650.45677	6.85
650.47207	9.55
650.48737	17.45
650.50267	-0.05
650.51796	-5.4
650.53325	1.6
650.54854	11.6
650.56383	14.65
650.57911	5.6
650.5944	5.95
650.60968	13.65
650.62495	9.35
650.64023	6.75
650.6555	0.3
650.67077	-1.5
650.68604	4
650.70131	11
650.71657	5.65
650.73183	9.3
650.74709	7.75
650.76234	4.15
650.77759	7.7
650.79285	11.9
650.80809	9.95
650.82334	7.5
650.83858	6.15
650.85382	10.15
650.86906	11.25
650.8843	22.4
650.89953	8.95
650.91476	2.5
650.92999	-1.9
650.94522	2.3
650.96044	9.45
650.97566	5.3
650.99088	0.95
651.00609	-1.9
651.02131	2.55
651.03652	6.65
651.05173	7.8
651.06693	-11.35
651.08214	-3.9
651.09734	-5.7
651.11254	2.5
651.12773	-2.7
651.14293	6.75
651.15812	1.85
651.17331	3.7
651.1885	14.3
651.20368	-4.8
651.21886	-7.45
651.23404	7.2
651.24922	10.7
651.26439	6.45
651.27956	5.6
651.29473	3.4
651.3099	17.55
651.32507	-7.8
651.34023	-2.8
651.35539	-0.65
651.37054	-8.1
651.3857	-15.75
651.40085	1.6
651.416	8.35
651.43115	3.05
651.44629	-0.7
651.46144	-5.7
651.47658	8.65
651.49171	22
651.50685	12.75
651.52198	5.65
651.53711	-0.5
651.55224	-4.9
651.56736	5.5
651.58249	11.85
651.59761	13.95
651.61273	-9.4
651.62784	2.35
651.64295	1.6
651.65806	-1.35
651.67317	1.2
651.68828	0.25
651.70338	9.6
651.71848	17
651.73358	17.7
651.74868	0.1
651.76377	6.1
651.77886	8.4
651.79395	3.05
651.80904	-0.95
651.82412	12.9
651.8392	7.7
651.85428	6.9
651.86935	10.9
651.88443	15.85
651.8995	6.15
651.91457	-0.2
651.92963	2.55
651.9447	19.8
651.95976	9.75
651.97482	4.4
651.98988	8.8
652.00493	1.55
652.01998	6
652.03503	19.85
652.05008	26.85
652.06512	58.05
652.08016	9
652.0952	6.15
652.11024	30.55
652.12527	10.9
652.14031	5.4
652.15534	7.3
652.17036	11.15
652.18539	3.75
652.20041	11.55
652.21543	9.4
652.23045	-1.45
652.24546	2.3
652.26047	11.55
652.27548	15.25
652.29049	10.05
652.3055	1
652.3205	7.5
652.3355	4.55
652.3505	4.25
652.36549	10.4
652.38048	11.35
652.39547	14.25
652.41046	6.85
652.42545	17
652.44043	16.35
652.45541	4.5
652.47039	11.05
652.48536	6.45
652.50034	-3.5
652.51531	-4.65
652.53028	0.9
652.54524	4.05
652.5602	1
652.57517	-2
652.59012	30.7
652.60508	75.95
652.62003	12.85
652.63498	-4
652.64993	-3.4
652.66488	-2.25
652.67982	6.25
652.69476	9.25
652.7097	-1.1
652.72464	-4
652.73957	6.6
652.7545	7.55
652.76943	22.2
652.78436	9.2
652.79928	8.3
652.8142	11.2
652.82912	5.25
652.84404	3.6
652.85895	-7.1
652.87387	2.6
652.88877	17.65
652.90368	18.8
652.91859	-2.85
652.93349	0.2
652.94839	7.85
652.96328	9.2
652.97818	3.7
652.99307	5.05
653.00796	13.4
653.02285	2.85
653.03773	5.35
653.05261	0.15
653.06749	0.7
653.08237	0.55
653.09725	1.95
653.11212	7.35
653.12699	1.45
653.14186	15.2
653.15672	21.4
653.17158	6.65
653.18644	14.05
653.2013	9.2
653.21616	9.7
653.23101	16.05
653.24586	4.75
653.26071	-3.35
653.27555	15.9
653.29039	15.9
653.30524	1.7
653.32007	4.8
653.33491	92
653.34974	223.7
653.36457	23.55
653.3794	2.55
653.39423	-1.25
653.40905	-1.45
653.42387	2.35
653.43869	5
653.45351	2.85
653.46832	-3.45
653.48313	-2.75
653.49794	5.5
653.51274	13.1
653.52755	15.35
653.54235	8.8
653.55715	-3.05
653.57194	3.5
653.58674	10.6
653.60153	8.65
653.61632	2.85
653.6311	-8.3
653.64589	-2.5
653.66067	9.95
653.67545	7.65
653.69023	-2.95
653.705	-4.3
653.71977	-1.3
653.73454	0.75
653.74931	1.5
653.76407	8.95
653.77883	8.9
653.79359	11.45
653.80835	5.9
653.8231	2.7
653.83786	10.55
653.85261	22.2
653.86735	13.2
653.8821	34.2
653.89684	11.25
653.91158	9.45
653.92632	17.3
653.94105	13.8
653.95579	14.05
653.97052	-1.35
653.98524	-5.25
653.99997	-0.15
654.01469	6.15
654.02941	9.5
654.04413	16.45
654.05884	9.4
654.07356	17.05
654.08827	50.15
654.10297	100.7
654.11768	25.3
654.13238	25.9
654.14708	18.25
654.16178	2.25
654.17648	4.95
654.19117	-3.55
654.20586	-3.35
654.22055	9.3
654.23524	9.95
654.24992	36.4
654.2646	58.7
654.27928	29.6
654.29395	22.5
654.30863	27.75
654.3233	31.8
654.33797	18.8
654.35263	16.8
654.3673	17.85
654.38196	18.55
654.39662	1.15
654.41127	8.55
654.42593	18.75
654.44058	16.25
654.45523	5.7
654.46987	4.05
654.48452	15.25
654.49916	16.25
654.5138	12.75
654.52844	12.2
654.54307	13.25
654.5577	25.25
654.57233	16.95
654.58696	15.35
654.60158	15.6
654.6162	10.25
654.63082	7.55
654.64544	12.25
654.66005	9.1
654.67467	4.35
654.68928	14.55
654.70388	17.95
654.71849	20.05
654.73309	53.15
654.74769	108.5
654.76229	18.05
654.77688	19.65
654.79148	15.65
654.80607	8.1
654.82065	23.25
654.83524	23.45
654.84982	15
654.8644	13.4
654.87898	9.85
654.89355	12.2
654.90813	13.65
654.9227	7.95
654.93727	6.45
654.95183	12
654.96639	16.1
654.98095	19
654.99551	15.05
655.01007	21.95
655.02462	8.05
655.03917	6.6
655.05372	10.5
655.06827	15.3
655.08281	26.1
655.09735	27.2
655.11189	26.8
655.12643	25.8
655.14096	22.15
655.15549	23.7
655.17002	13.95
655.18454	19.95
655.19907	26.55
655.21359	35.3
655.22811	38.65
655.24262	35.25
655.25714	36.55
655.27165	47.35
655.28616	44.35
655.30067	48.75
655.31517	59.05
655.32967	70.3
655.34417	92.95
655.35867	142.1
655.37316	324.55
655.38765	1051.45
655.40214	3166.05
655.41663	6785.7
655.43111	9645.3
655.4456	9212.35
655.46008	6717.1
655.47455	4872.2
655.48903	4051.45
655.5035	3323.7
655.51797	2528.3
655.53244	1758.75
655.5469	1237
655.56136	1305.85
655.57582	2611.15
655.59028	5603.3
655.60474	8753.3
655.61919	9355.7
655.63364	7322.5
655.64809	5169.25
655.66253	4072.2
655.67697	3364.3
655.69141	2653.55
655.70585	1884
655.72029	1215.9
655.73472	709.6
655.74915	398.55
655.76358	229.6
655.778	148.15
655.79243	119
655.80685	84
655.82127	59.55
655.83568	56.35
655.8501	63.7
655.86451	41.7
655.87891	36.65
655.89332	30.2
655.90772	19.95
655.92212	19.75
655.93652	36.8
655.95092	27.45
655.96531	19.95
655.9797	12.3
655.99409	22.95
656.00848	15.85
656.02286	20.6
656.03724	20.6
656.05162	16.75
656.066	3.1
656.08037	7.3
656.09475	12.05
656.10911	12.05
656.12348	14.45
656.13784	16.9
656.15221	11.7
656.16657	27.4
656.18092	19.45
656.19528	22.6
656.20963	15.65
656.22398	7.4
656.23833	18.6
656.25267	19.95
656.26701	20.85
656.28135	5
656.29569	8.45
656.31002	20.4
656.32436	25.95
656.33869	25.35
656.35301	9.6
656.36734	12.6
656.38166	2.75
656.39598	-1.75
656.4103	-1.05
656.42461	3.45
656.43892	2.85
656.45323	2.35
656.46754	5.1
656.48185	8.65
656.49615	5.85
656.51045	9.85
656.52475	10.85
656.53904	9.25
656.55334	4.15
656.56763	6.1
656.58192	6.95
656.5962	11.7
656.61048	2.95
656.62476	5.6
656.63904	7.95
656.65332	9
656.66759	4.55
656.68186	5.05
656.69613	7.95
656.7104	3.15
656.72466	13.05
656.73892	12.6
656.75318	18.9
656.76744	2.1
656.78169	6.25
656.79594	24.1
656.81019	35.4
656.82444	-2.15
656.83868	8.1
656.85292	7.35
656.86716	8.65
656.8814	10.9
656.89563	7.2
656.90986	4.3
656.92409	5.65
656.93832	9.5
656.95254	8.6
656.96676	8.3
656.98098	19.4
656.9952	8.8
657.00941	9.65
657.02363	-2.8
657.03784	-2.4
657.05204	1.8
657.06625	23.05
657.08045	5.9
657.09465	6.65
657.10885	-3.2
657.12304	4.7
657.13723	5.05
657.15142	4.95
657.16561	1.3
657.1798	0.95
657.19398	-10.7
657.20816	1.85
657.22234	2.8
657.23651	0.05
657.25068	1.65
657.26485	9.1
657.27902	2.45
657.29319	-5.9
657.30735	3.25
657.32151	2.05
657.33567	12.4
657.34982	23.9
657.36398	15.35
657.37813	17.9
657.39227	2.55
657.40642	13.95
657.42056	21.6
657.4347	5.2
657.44884	6.9
657.46298	5.5
657.47711	16.1
657.49124	22
657.50537	-0.25
657.5195	3.5
657.53362	1.85
657.54774	4.35
657.56186	18
657.57598	25.8
657.59009	11.75
657.6042	13.6
657.61831	9.3
657.63242	12.85
657.64652	12
657.66062	9.25
657.67472	16.25
657.68882	12.95
657.70291	1.55
657.717	5.5
657.73109	5.45
657.74518	11.65
657.75926	3.5
657.77335	-1.95
657.78742	-2.2
657.8015	0.1
657.81558	6.75
657.82965	10.95
657.84372	-0.65
657.85778	7.75
657.87185	0.8
657.88591	6.6
657.89997	2.2
657.91403	14.75
657.92808	16.6
657.94214	9.05
657.95618	8.1
657.97023	4.45
657.98428	7.85
657.99832	33.85
658.01236	11
658.0264	-7
658.04043	1.7
658.05447	6.6
658.0685	-6.45
658.08252	-2.9
658.09655	7.1
658.11057	18.35
658.12459	18.3
658.13861	23.75
658.15263	9.75
658.16664	23.35
658.18065	9.45
658.19466	0.4
658.20866	-5.6
658.22267	-2.9
658.23667	8.9
658.25067	10.1
658.26466	12.6
658.27865	13.5
658.29265	4.6
658.30663	5.15
658.32062	4.45
658.3346	7.9
658.34858	8.15
658.36256	9.1
658.37654	8.2
658.39051	17.95
658.40448	15.35
658.41845	9.2
658.43242	5.7
658.44638	-1
658.46035	-2.35
658.4743	8.45
658.48826	13.6
658.50221	17.65
658.51617	8.3
658.53012	0.2
658.54406	2.4
658.55801	8.75
658.57195	3.2
658.58589	14.05
658.59983	14.85
658.61376	-2.35
658.62769	1.85
658.64162	13.75
658.65555	14.8
658.66947	5.75
658.6834	29.3
658.69731	71.3
658.71123	15.45
658.72515	16.45
658.73906	6.15
658.75297	8.1
658.76688	7.25
658.78078	12.85
658.79468	5.85
658.80858	-8.35
658.82248	-0.9
658.83638	7.65
658.85027	11.25
658.86416	5.9
658.87805	9.6
658.89193	-1.3
658.90582	6.35
658.9197	7.5
658.93357	4.2
658.94745	1.95
658.96132	-4.45
658.97519	9.05
658.98906	-4.1
659.00293	-5
659.01679	-3.8
659.03065	3.5
659.04451	12.9
659.05837	7.8
659.07222	4.25
659.08607	3.75
659.09992	11
659.11377	8.2
659.12761	1.6
659.14145	8.1
659.15529	12.45
659.16913	11.45
659.18296	8.25
659.19679	1.6
659.21062	9.2
659.22445	9.9
659.23827	33.9
659.25209	22.35
659.26591	12.5
659.27973	14.75
659.29354	3.25
659.30735	-0.85
659.32116	8.9
659.33497	5.1
659.34877	-7.4
659.36258	1.7
659.37637	19.05
659.39017	15.85
659.40397	-5.95
659.41776	-0.8
659.43155	6.45
659.44533	9.25
659.45912	16.2
659.4729	0.9
659.48668	10.55
659.50046	6.85
659.51423	1.65
659.52801	8.1
659.54178	19.85
659.55554	4.2
659.56931	8.4
659.58307	6.45
659.59683	9.55
659.61059	6.65
659.62434	31.95
659.6381	62.65
659.65185	6.8
659.6656	-2.65
659.67934	2.55
659.69308	2.8
659.70682	11.6
659.72056	10.35
659.7343	9.25
659.74803	0.75
659.76176	4.25
659.77549	5.4
659.78922	13.45
659.80294	-10.95
659.81666	-4.1
659.83038	8.95
659.84409	10
659.85781	0.75
659.87152	-0.15
659.88523	1.5
659.89893	3.9
659.91264	13.6
659.92634	22.05
659.94004	13.8
659.95373	6.5
659.96743	9.5
659.98112	15.5
659.99481	10.5
660.00849	7.25
660.02218	12.6
660.03586	14.7
660.04954	-0.6
660.06322	6.15
660.07689	22.05
660.09056	29.15
660.10423	-0.55
660.1179	6.65
660.13156	17.35
660.14522	9.15
660.15888	1.55
660.17254	2.3
660.1862	5.5
660.19985	4.65
660.2135	-0.5
660.22714	5.6
660.24079	3.8
660.25443	2.6
660.26807	6.85
660.28171	9.65
660.29534	12.65
660.30898	9.65
660.32261	1.95
660.33623	-7.4
660.34986	-5.55
660.36348	12.1
660.3771	10.55
660.39072	21.75
660.40433	21.4
660.41795	17.3
660.43156	0.65
660.44517	5.1
660.45877	9.95
660.47237	7
660.48598	5.95
660.49957	1.3
660.51317	5.75
660.52676	3.3
660.54035	11.95
660.55394	17.3
660.56753	6.6
660.58111	10.3
660.59469	18.65
660.60827	0.9
660.62185	10.1
660.63542	13.25
660.64899	12.1
660.66256	18
660.67613	15.3
660.68969	17.8
660.70325	17.5
660.71681	1.3
660.73037	-4.9
660.74392	4.8
660.75747	7.05
660.77102	6.15
660.78457	3.55
660.79811	13.5
660.81165	19.25
660.82519	11.85
660.83873	4.6
660.85226	10.5
660.86579	16.25
660.87932	8.05
660.89285	-1.25
660.90637	16.5
660.9199	11.25
660.93342	6.65
660.94693	11.2
660.96045	0.7
660.97396	10.65
660.98747	17.15
661.00098	4.2
661.01448	-2.7
661.02798	2.45
661.04148	11.75
661.05498	18.75
661.06848	7.05
661.08197	3.1
661.09546	20.95
661.10895	39.1
661.12243	14
661.13591	10.25
661.14939	-4.75
661.16287	-3.7
661.17635	14.05
661.18982	13.05
661.20329	26.7
661.21676	22.3
661.23022	8.65
661.24369	9.55
661.25715	10.3
661.27061	7.2
661.28406	16
661.29752	-3.2
661.31097	2.7
661.32441	6.3
661.33786	1.15
661.3513	-1.05
661.36474	4.8
661.37818	9.65
661.39162	8.1
661.40505	51.05
661.41848	116.8
661.43191	17.55
661.44534	5.5
661.45876	8.25
661.47218	14.5
661.4856	13.6
661.49902	10.95
661.51243	4.35
661.52585	18.4
661.53925	16.2
661.55266	7.85
661.56606	3.1
661.57947	7.65
661.59287	0.2
661.60626	2.3
661.61966	12.8
661.63305	6.75
661.64644	6.05
661.65983	7.65
661.67321	11.1
661.68659	6.9
661.69997	20.25
661.71335	13.85
661.72672	24.1
661.7401	46.65
661.75347	3.95
661.76683	9.6
661.7802	21.2
661.79356	22.15
661.80692	2.75
661.82028	10.75
661.83363	3.65
661.84698	-0.25
661.86033	8.85
661.87368	9.65
661.88703	12.6
661.90037	10.95
661.91371	5.95
661.92705	3.7
661.94038	3.8
661.95372	8
661.96705	23.7
661.98038	27.45
661.9937	10.9
662.00702	6.5
662.02034	16.95
662.03366	9.35
662.04698	9.35
662.06029	1.45
662.0736	-1.75
662.08691	-1
662.10022	5.2
662.11352	10.65
662.12682	10.1
662.14012	-9.3
662.15342	2.25
662.16671	13.55
662.18	4.75
662.19329	-0.55
662.20658	-1.7
662.21986	3.55
662.23314	4.05
662.24642	-2.75
662.2597	10.85
662.27297	4.95
662.28624	-0.9
662.29951	10
662.31278	3.65
662.32604	-0.6
662.3393	8.25
662.35256	5.6
662.36582	1.5
662.37907	0.4
662.39233	3.7
662.40558	9.8
662.41882	10.75
662.43207	19
662.44531	4
662.45855	-2.3
662.47179	3.15
662.48502	4.2
662.49825	3.05
662.51148	15.7
662.52471	16.2
662.53794	6.25
662.55116	12.65
662.56438	8.65
662.5776	4.2
662.59081	12.75
662.60402	16.15
662.61723	5.25
662.63044	12.5
662.64365	10.05
662.65685	6.65
662.67005	16.9
662.68325	20.25
662.69644	2.7
662.70964	5.55
662.72283	8.45
662.73601	10.1
662.7492	15.15
662.76238	7.95
662.77556	5.6
662.78874	15.45
662.80192	18.4
662.81509	19.55
662.82826	12.55
662.84143	-3.3
662.8546	0.6
662.86776	5.55
662.88092	-3.55
662.89408	-2.45
662.90724	10.6
662.92039	28.25
662.93354	4.55
662.94669	1.75
662.95984	7.3
662.97298	1.9
662.98612	-3.8
662.99926	-4.55
663.0124	9.05
663.02553	8.1
663.03866	8.45
663.05179	8.2
663.06492	6.85
663.07804	13.15
663.09116	17
663.10428	5.65
663.1174	1.8
663.13052	5.6
663.14363	3.25
663.15674	-2.15
663.16984	6.55
663.18295	14.05
663.19605	17.05
663.20915	14.4
663.22225	14.55
663.23534	14.15
663.24843	-0.6
663.26152	-0.9
663.27461	-1.8
663.2877	5.2
663.30078	6.05
663.31386	8.3
663.32694	11
663.34001	19.15
663.35308	16.15
663.36615	3.1
663.37922	13.7
663.39229	21.65
663.40535	-2.35
663.41841	-3.85
663.43147	-2
663.44452	8.8
663.45758	12.85
663.47063	11.45
663.48368	5.85
663.49672	8.6
663.50977	-3.95
663.52281	1.85
663.53584	-0.6
663.54888	-4.2
663.56191	-6.05
663.57494	-6.55
663.58797	-5.3
663.601	1.85
663.61402	9.3
663.62704	13.2
663.64006	1
663.65308	3.75
663.66609	-1.95
663.6791	-3
663.69211	19.35
663.70512	23.7
663.71812	3.45
663.73112	-0.35
663.74412	-1
663.75712	9.8
663.77011	6.85
663.78311	6.05
663.79609	15.3
663.80908	10.55
663.82207	3.05
663.83505	-8.55
663.84803	0.4
663.861	4.2
663.87398	8.5
663.88695	8.35
663.89992	1.55
663.91289	4.45
663.92585	7.25
663.93881	-1.3
663.95177	12.2
663.96473	29.95
663.97769	10.15
663.99064	-3.95
664.00359	3.5
664.01654	20.1
664.02948	12.2
664.04242	8.25
664.05536	3.75
664.0683	7.65
664.08124	9.05
664.09417	14.3
664.1071	11.15
664.12003	11.25
664.13295	1.65
664.14588	4.35
664.1588	3.1
664.17171	3.1
664.18463	11.1
664.19754	3.3
664.21045	15.45
664.22336	7.6
664.23627	11.45
664.24917	10.1
664.26207	3.95
664.27497	4
664.28787	15.15
664.30076	17.05
664.31365	3.85
664.32654	5.65
664.33942	4.05
664.35231	6.1
664.36519	4.15
664.37807	3.1
664.39094	15.05
664.40382	18.5
664.41669	16.15
664.42956	8.9
664.44242	4.95
664.45529	8.85
664.46815	5.8
664.48101	7.95
664.49387	14.7
664.50672	-1.7
664.51957	3.1
664.53242	10.1
664.54527	7.75
664.55811	9.1
664.57095	5.05
664.58379	6.8
664.59663	-1.2
664.60946	4.55
664.6223	11.3
664.63513	10.25
664.64795	12.05
664.66078	7.3
664.6736	3.7
664.68642	2.2
664.69924	2.45
664.71205	5.9
664.72486	1.6
664.73767	0.9
664.75048	14.75
664.76329	16.35
664.77609	8.35
664.78889	22.35
664.80169	11.1
664.81448	2.6
664.82728	2.4
664.84007	5.9
664.85285	-0.45
664.86564	10.25
664.87842	0.55
664.8912	1.75
664.90398	14.35
664.91676	11.75
664.92953	1.95
664.9423	13.3
664.95507	13.5
664.96783	13.2
664.9806	13.2
664.99336	4.7
665.00612	6.9
665.01887	14.8
665.03163	13.55
665.04438	12.25
665.05713	18.05
665.06987	4.3
665.08262	-8.3
665.09536	-0.5
665.1081	3.45
665.12083	2.45
665.13357	0.35
665.1463	17.05
665.15903	15.35
665.17175	19.65
665.18448	6.5
665.1972	8.55
665.20992	6.9
665.22263	11.5
665.23535	27.6
665.24806	51.7
665.26077	6.85
665.27348	0.1
665.28618	18.35
665.29888	15.55
665.31158	2.15
665.32428	16.25
665.33697	11.95
665.34967	2.95
665.36236	2.65
665.37504	5.75
665.38773	8.55
665.40041	16.75
665.41309	12.6
665.42577	6.35
665.43844	-1.55
665.45111	6.1
665.46378	3.45
665.47645	6.1
665.48912	12
665.50178	9.6
665.51444	1.95
665.5271	13.3
665.53975	2.65
665.55241	-2.05
665.56506	2.75
665.5777	0.9
665.59035	9.05
665.60299	11.3
665.61563	12.4
665.62827	13.75
665.64091	5.8
665.65354	-0.95
665.66617	6.2
665.6788	9.5
665.69142	15.8
665.70405	13.05
665.71667	-0.05
665.72929	-1.2
665.7419	5.7
665.75452	-4.5
665.76713	2.7
665.77974	5.45
665.79234	19.75
665.80495	12.1
665.81755	13.2
665.83015	-2.15
665.84274	13.7
665.85534	3.35
665.86793	3.1
665.88052	6.55
665.8931	13.45
665.90569	2.9
665.91827	3.5
665.93085	-3.9
665.94343	11.85
665.956	10.15
665.96857	-0.1
665.98114	-3.5
665.99371	-14.1
666.00627	-12.8
666.01883	-2.3
666.03139	13.15
666.04395	14.85
666.05651	14.85
666.06906	20.85
666.08161	9.5
666.09415	4.55
666.1067	6.75
666.11924	6.4
666.13178	2.55
666.14432	3.25
666.15685	0
666.16939	3.45
666.18192	4.3
666.19444	4.1
666.20697	10.6
666.21949	18.6
666.23201	17.7
666.24453	3.2
666.25705	12.55
666.26956	7.2
666.28207	8.85
666.29458	2.6
666.30708	1.15
666.31959	2.2
666.33209	10.05
666.34458	8.5
666.35708	10.65
666.36957	14.1
666.38206	13.65
666.39455	11.35
666.40704	3.5
666.41952	12.3
666.432	9.15
666.44448	10.35
666.45696	-0.05
666.46943	2.35
666.4819	5.55
666.49437	10.55
666.50684	11.6
666.5193	-1.2
666.53176	-10.55
666.54422	-5.5
666.55668	8.7
666.56913	-0.9
666.58158	6.05
666.59403	12.35
666.60648	8.5
666.61892	5.25
666.63136	13.95
666.6438	11.65
666.65624	7.35
666.66867	15.95
666.68111	14.7
666.69354	13.8
666.70596	12.35
666.71839	3.2
666.73081	8.25
666.74323	1.85
666.75565	16.95
666.76806	13.5
666.78047	-0.1
666.79288	1.85
666.80529	9.75
666.81769	6.15
666.8301	7.15
666.8425	10.35
666.85489	1.55
666.86729	3.95
666.87968	-2.95
666.89207	0.9
666.90446	10
666.91684	15.5
666.92923	1.35
666.94161	17.3
666.95399	38.5
666.96636	7.9
666.97873	8.9
666.9911	-6.3
667.00347	6.9
667.01584	12.7
667.0282	11.05
667.04056	-4.7
667.05292	0.3
667.06528	7.7
667.07763	-1.05
667.08998	5.3
667.10233	13.45
667.11467	-0.35
667.12702	-6.2
667.13936	0.45
667.1517	17.1
667.16403	7.6
667.17637	9.8
667.1887	0.95
667.20103	-7.25
667.21335	-4.65
667.22568	0
667.238	6.35
667.25032	7.95
667.26263	18.3
667.27495	6.9
667.28726	12.75
667.29957	24.2
667.31188	16.05
667.32418	10.5
667.33648	4.15
667.34878	11.25
667.36108	4.25
667.37337	-10.35
667.38566	-1.6
667.39795	5.85
667.41024	4.4
667.42252	21.1
667.43481	15.55
667.44709	3.9
667.45936	4.75
667.47164	9.1
667.48391	8.8
667.49618	-5.3
667.50845	-3.45
667.52071	9.2
667.53297	8.05
667.54523	9.15
667.55749	6.25
667.56975	6.8
667.582	5.65
667.59425	10.65
667.6065	22.05
667.61874	4.8
667.63099	17.65
667.64323	15.4
667.65546	0.45
667.6677	4.1
667.67993	3.65
667.69216	7.55
667.70439	-0.35
667.71662	-0.45
667.72884	4.5
667.74106	5.4
667.75328	6.15
667.76549	5.1
667.77771	1.35
667.78992	9.35
667.80213	9.15
667.81433	-1.1
667.82654	11
667.83874	10.35
667.85094	-9.5
667.86313	-6.6
667.87533	-8.65
667.88752	-1.75
667.89971	2.7
667.91189	1.7
667.92408	-2.15
667.93626	5.45
667.94844	10.55
667.96061	12.05
667.97279	1.6
667.98496	4.25
667.99713	-1.55
668.0093	4.85
668.02146	13.05
668.03362	11.65
668.04578	2.55
668.05794	-8.85
668.07009	1.5
668.08224	9.05
668.09439	26.5
668.10654	16.85
668.11868	11.85
668.13083	5.8
668.14297	4.9
668.1551	7.4
668.16724	7.05
668.17937	9.75
668.1915	-0.25
668.20363	5
668.21575	7.6
668.22788	2.45
668.24	9.85
668.25211	15.2
668.26423	14.6
668.27634	0.6
668.28845	7.65
668.30056	1.55
668.31266	-0.45
668.32477	6.05
668.33687	-2.45
668.34897	-2.8
668.36106	5.45
668.37315	14.1
668.38524	4.85
668.39733	2.65
668.40942	-4.2
668.4215	4.95
668.43358	5.95
668.44566	7.9
668.45774	7.75
668.46981	-1.4
668.48188	1.65
668.49395	6.25
668.50602	11.3
668.51808	8.35
668.53014	5.1
668.5422	5.15
668.55425	4.15
668.56631	9.85
668.57836	0.55
668.59041	6.4
668.60246	0.7
668.6145	-1.15
668.62654	-4.6
668.63858	0.7
668.65062	4.8
668.66265	10.95
668.67468	-2.3
668.68671	4.8
668.69874	22.7
668.71076	7.3
668.72278	1
668.7348	5
668.74682	4.55
668.75883	1.55
668.77085	-6.35
668.78286	-7.35
668.79486	4
668.80687	9.4
668.81887	3.4
668.83087	7.25
668.84287	-3.45
668.85486	11.45
668.86685	-8.7
668.87884	-4.05
668.89083	6.1
668.90282	12.25
668.9148	3.9
668.92678	0.6
668.93876	3.65
668.95073	5.1
668.9627	0.65
668.97468	4.6
668.98664	10.65
668.99861	11.8
669.01057	12.3
669.02253	7.65
669.03449	12.15
669.04645	4.1
669.0584	9.35
669.07035	4.7
669.0823	0.65
669.09424	-6.95
669.10619	-6.05
669.11813	2.8
669.13007	11.1
669.142	11.45
669.15393	15.3
669.16587	8.4
669.17779	0.75
669.18972	-3.25
669.20164	-3.7
669.21356	6.95
669.22548	7.85
669.2374	5.7
669.24931	-0.7
669.26123	-4.25
669.27313	11.4
669.28504	12.1
669.29694	1.55
669.30885	3.85
669.32074	6.95
669.33264	14.35
669.34454	1.5
669.35643	-3.65
669.36832	-0.5
669.3802	3.55
669.39209	-4.35
669.40397	-1.05
669.41585	-2.9
669.42773	-4.3
669.4396	-9.65
669.45147	-7.45
669.46334	1.6
669.47521	5.25
669.48707	-1.4
669.49894	-1.9
669.5108	6.1
669.52265	3.95
669.53451	7.5
669.54636	-0.05
669.55821	7.75
669.57006	0.75
669.5819	-8.5
669.59375	-2.3
669.60559	6.85
669.61742	2.2
669.62926	1.15
669.64109	2.05
669.65292	6.15
669.66475	7.8
669.67658	2.85
669.6884	3.05
669.70022	4.15
669.71204	16.5
669.72385	6.05
669.73567	2.7
669.74748	1.15
669.75928	2.15
669.77109	2.05
669.78289	0.95
669.79469	2.55
669.80649	1.7
669.81829	-2.8
669.83008	9.85
669.84187	5.55
669.85366	1.75
669.86545	1.25
669.87723	7.1
669.88901	12.8
669.90079	10.5
669.91257	2.75
669.92434	14.25
669.93611	19.5
669.94788	15.5
669.95965	10.1
669.97141	-3
669.98317	1.3
669.99493	8.25
670.00669	7.2
670.01844	5.55
670.0302	9.9
670.04194	4.35
670.05369	11.85
670.06544	-1.9
670.07718	1.7
670.08892	8.05
670.10065	4.7
670.11239	4.65
670.12412	11.6
670.13585	8.8
670.14758	-0.1
670.1593	0.1
670.17103	7.45
670.18275	19.85
670.19446	3.55
670.20618	9.25
670.21789	7.55
670.2296	6.8
670.24131	0.2
670.25301	14.25
670.26472	20.65
670.27642	12.85
670.28811	4.75
670.29981	2.35
670.3115	0.1
670.32319	0.8
670.33488	-2.2
670.34656	0.55
670.35825	8.45
670.36993	9.95
670.38161	3.4
670.39328	0.55
670.40496	5
670.41663	-0.6
670.42829	8.05
670.43996	9.5
670.45162	6.55
670.46328	-3.3
670.47494	-5.55
670.4866	-0.1
670.49825	9.7
670.5099	5.45
670.52155	5.4
670.5332	12.7
670.54484	3.85
670.55648	-2.7
670.56812	12.95
670.57976	-0.25
670.59139	-3.05
670.60302	-0.3
670.61465	9
670.62628	3.2
670.6379	0.8
670.64952	7.8
670.66114	1.55
670.67276	-5.1
670.68438	1.8
670.69599	4.3
670.7076	1.6
670.7192	8.35
670.73081	18.2
670.74241	14.15
670.75401	5.2
670.76561	9.25
670.7772	9.35
670.78879	1.25
670.80038	-2.55
670.81197	-6.55
670.82355	1.75
670.83514	9.8
670.84672	-0.2
670.85829	-4.2
670.86987	-4.9
670.88144	3.95
670.89301	-4
670.90458	-4.7
670.91614	-4.7
670.92771	2.25
670.93927	5.95
670.95083	8.1
670.96238	3.3
670.97393	-0.4
670.98548	0.75
670.99703	-8.1
671.00858	-7.3
671.02012	-2.35
671.03166	-7.55
671.0432	-3.8
671.05473	5.1
671.06627	7.4
671.0778	2.3
671.08933	0.35
671.10085	8.05
671.11238	10.75
671.1239	7.7
671.13542	10.7
671.14693	3.05
671.15845	1.35
671.16996	12.1
671.18147	17.65
671.19297	10.1
671.20448	13.35
671.21598	0.6
671.22748	1.85
671.23897	-0.25
671.25047	-2.3
671.26196	3.55
671.27345	3.35
671.28493	4.45
671.29642	-0.9
671.3079	1.8
671.31938	-1.1
671.33085	-2
671.34233	8.15
671.3538	12.5
671.36527	4.7
671.37674	-9.4
671.3882	-6.15
671.39966	-0.95
671.41112	2.85
671.42258	-6.1
671.43404	5.05
671.44549	13.4
671.45694	2.25
671.46838	10.65
671.47983	12.25
671.49127	3.1
671.50271	13.5
671.51415	5.9
671.52558	5.5
671.53702	6.65
671.54845	12.8
671.55987	7
671.5713	5.55
671.58272	4.3
671.59414	11.4
671.60556	29.4
671.61698	20.3
671.62839	9.55
671.6398	9.05
671.65121	2.4
671.66261	-1.25
671.67402	-3.75
671.68542	2.4
671.69681	-7.85
671.70821	-8.35
671.7196	3.05
671.73099	-2.35
671.74238	4.15
671.75377	5.7
671.76515	6.25
671.77653	0.9
671.78791	4.5
671.79929	19.9
671.81066	12.8
671.82203	14
671.8334	0.2
671.84477	8
671.85613	9.55
671.86749	10.45
671.87885	15.15
671.89021	29.75
671.90156	7.15
671.91291	-0.5
671.92426	-6.8
671.93561	1.95
671.94695	4.55
671.9583	3.3
671.96963	16.7
671.98097	12.25
671.99231	4.2
672.00364	-6.9
672.01497	6.15
672.02629	6.55
672.03762	-1.65
672.04894	0.35
672.06026	-2.2
672.07158	-3.2
672.08289	-1.7
672.0942	-1.5
672.10551	14.25
672.11682	32.1
672.12813	13.25
672.13943	3.8
672.15073	-2.35
672.16203	-0.7
672.17332	2.85
672.18461	3.1
672.1959	13.85
672.20719	14.3
672.21848	14
672.22976	14.7
672.24104	11.6
672.25232	4.1
672.26359	8.95
672.27487	3.15
672.28614	10.95
672.29741	9.7
672.30867	1.05
672.31993	2.2
672.33119	4.6
672.34245	4.2
672.35371	-6.65
672.36496	2.6
672.37621	4.95
672.38746	-5.1
672.39871	1.35
672.40995	2.3
672.42119	11.85
672.43243	24.4
672.44367	14.4
672.4549	-0.2
672.46613	9.85
672.47736	7.6
672.48859	14.5
672.49981	9.25
672.51103	1.2
672.52225	4.05
672.53347	3.55
672.54468	4.5
672.55589	11.35
672.5671	3.45
672.57831	2.2
672.58951	11.25
672.60072	5.75
672.61191	-1.05
672.62311	1.35
672.63431	4.05
672.6455	7.35
672.65669	2.7
672.66787	0.55
672.67906	-3.7
672.69024	-3.5
672.70142	0.2
672.7126	8.5
672.72377	-5.15
672.73494	-2.55
672.74611	5.95
672.75728	-0.45
672.76845	6.8
672.77961	3.4
672.79077	-0.75
672.80193	-4.2
672.81308	8.6
672.82423	10.15
672.83539	13.1
672.84653	5.05
672.85768	1.2
672.86882	3.15
672.87996	6.7
672.8911	1.1
672.90223	9.45
672.91337	1.85
672.9245	0.55
672.93563	3.45
672.94675	10.45
672.95788	11.65
672.969	-2.45
672.98011	7.6
672.99123	13.45
673.00234	8.7
673.01345	2.85
673.02456	-4.9
673.03567	1.8
673.04677	9.25
673.05787	-2.65
673.06897	0.45
673.08007	4.2
673.09116	2.05
673.10225	-9.05
673.11334	5.95
673.12443	15.8
673.13551	15.15
673.14659	7.25
673.15767	4.95
673.16875	7.1
673.17982	-1.85
673.1909	-2.65
673.20196	2.4
673.21303	3.2
673.2241	9.5
673.23516	11.55
673.24622	3.9
673.25727	9.4
673.26833	11
673.27938	13.05
673.29043	10.95
673.30148	21.7
673.31252	7.6
673.32356	3.45
673.3346	0
673.34564	6.15
673.35668	0.95
673.36771	-0.8
673.37874	5.2
673.38977	9.5
673.40079	13.85
673.41181	7.7
673.42283	13.2
673.43385	2.55
673.44487	8.4
673.45588	0.35
673.46689	-3.8
673.4779	11.15
673.4889	14.4
673.4999	4.6
673.51091	4.55
673.5219	10.95
673.5329	22.35
673.54389	13.75
673.55488	3.15
673.56587	11.45
673.57686	9.75
673.58784	6.15
673.59882	13.75
673.6098	5.4
673.62077	16
673.63175	33.8
673.64272	16.8
673.65369	-1.75
673.66465	2.5
673.67562	1.15
673.68658	12.65
673.69754	1.85
673.70849	13.2
673.71945	14.25
673.7304	18.9
673.74135	26.8
673.75229	21.25
673.76324	26.2
673.77418	4.5
673.78512	9.9
673.79605	5.6
673.80699	9.95
673.81792	6.6
673.82885	14.3
673.83978	17.35
673.8507	14.95
673.86162	4.45
673.87254	0.9
673.88346	11.95
673.89437	7.9
673.90529	10.1
673.9162	16.1
673.9271	10.9
673.93801	10.85
673.94891	0.15
673.95981	0.65
673.97071	2
673.9816	4.4
673.99249	4.2
674.00338	8.5
674.01427	1.45
674.02516	3.4
674.03604	-3.95
674.04692	1.5
674.0578	5
674.06867	7.85
674.07954	13.75
674.09042	26.6
674.10128	1.55
674.11215	-5.65
674.12301	4.35
674.13387	5.35
674.14473	-2.05
674.15559	0.85
674.16644	2.45
674.17729	-0.05
674.18814	-0.15
674.19898	1.6
674.20983	-1.35
674.22067	-0.95
674.23151	0.45
674.24234	-5.55
674.25318	5
674.26401	20.95
674.27483	11.15
674.28566	-4.15
674.29648	-5.7
674.30731	-1.95
674.31812	1.55
674.32894	4.1
674.33975	13.5
674.35057	5.95
674.36137	3.95
674.37218	11.8
674.38299	-3.3
674.39379	-4.65
674.40459	12.65
674.41538	10.15
674.42618	3.9
674.43697	0
674.44776	-6.05
674.45854	2.45
674.46933	10.15
674.48011	9.35
674.49089	0.95
674.50167	1.85
674.51244	-3.4
674.52321	-9.4
674.53398	-13.9
674.54475	-5.25
674.55552	7.05
674.56628	2.6
674.57704	1.15
674.5878	9.55
674.59855	5.9
674.6093	11.55
674.62005	13.35
674.6308	8.9
674.64155	0.25
674.65229	2.1
674.66303	2.6
674.67377	10.2
674.6845	12.05
674.69523	20.2
674.70596	11.8
674.71669	5.25
674.72742	-1.95
674.73814	-4.1
674.74886	3.2
674.75958	2.55
674.77029	7.3
674.78101	-0.4
674.79172	11.7
674.80243	12.2
674.81313	7.85
674.82384	17.6
674.83454	7.4
674.84524	-2.4
674.85593	0.65
674.86663	5.85
674.87732	-2.95
674.888	1.85
674.89869	5.9
674.90937	9.65
674.92006	12.45
674.93073	9.85
674.94141	4.1
674.95208	8.6
674.96276	19.85
674.97343	16.45
674.98409	12.6
674.99476	14.6
675.00542	-0.05
675.01608	-0.45
675.02673	0.15
675.03739	1.45
675.04804	4.85
675.05869	17.95
675.06934	16.85
675.07998	17.9
675.09062	-6
675.10126	-7.75
675.1119	1.25
675.12253	15.35
675.13317	13.6
675.1438	10.2
675.15442	5.55
675.16505	2.5
675.17567	10.85
675.18629	19.35
675.19691	12.4
675.20752	9.7
675.21813	3
675.22874	2.2
675.23935	13.85
675.24996	11.15
675.26056	14.9
675.27116	10.8
675.28176	5.95
675.29235	8.05
675.30295	7.5
675.31354	7.4
675.32412	7.15
675.33471	-8.35
675.34529	-3
675.35587	-1.05
675.36645	-10.5
675.37703	-7.05
675.3876	2.55
675.39817	3.1
675.40874	5.65
675.41931	10.05
675.42987	16.9
675.44043	9.5
675.45099	5
675.46154	13.3
675.4721	10.05
675.48265	14.2
675.4932	17.55
675.50374	11.85
675.51429	0.45
675.52483	0.25
675.53537	-2.4
675.5459	4.45
675.55644	11.45
675.56697	2.25
675.5775	1.85
675.58803	-2.05
675.59855	8.35
675.60907	4
675.61959	-4.05
675.63011	2.4
675.64062	-1.75
675.65113	1.9
675.66164	13.45
675.67215	3.25
675.68265	5.35
675.69316	6.05
675.70366	2.1
675.71415	14.05
675.72465	20.7
675.73514	12.3
675.74563	14.95
675.75612	-0.75
675.7666	-0.95
675.77708	6.35
675.78756	9.25
675.79804	4.7
675.80852	17
675.81899	23.85
675.82946	9.5
675.83993	10.65
675.85039	12.5
675.86085	12.6
675.87131	15
675.88177	9.85
675.89223	10.85
675.90268	16.8
675.91313	10.35
675.92358	7.15
675.93402	1.05
675.94447	7.8
675.95491	16
675.96535	4.95
675.97578	12.65
675.98622	17.1
675.99665	-1.25
676.00707	10.45
676.0175	12.15
676.02792	7.25
676.03835	4.95
676.04876	5.8
676.05918	2
676.06959	8.65
676.08	21
676.09041	11.05
676.10082	-4.45
676.11122	3.5
676.12162	54.75
676.13202	101.8
676.14242	21.1
676.15281	3.5
676.16321	-2.35
676.17359	-2.7
676.18398	-6.9
676.19437	9.3
676.20475	3.05
676.21513	-2.05
676.2255	5.35
676.23588	18.2
676.24625	11.5
676.25662	5.3
676.26699	-0.95
676.27735	2.3
676.28771	16.7
676.29807	8.35
676.30843	8.1
676.31878	2.1
676.32914	5.6
676.33949	13.05
676.34983	14.95
676.36018	6.25
676.37052	-1.4
676.38086	-5.15
676.3912	-3
676.40153	3.35
676.41187	12.6
676.4222	3.8
676.43252	4.7
676.44285	21.25
676.45317	10.95
676.46349	-1.25
676.47381	4.25
676.48413	13.15
676.49444	10
676.50475	10.15
676.51506	10.4
676.52536	16.45
676.53567	7.15
676.54597	11.15
676.55626	10
676.56656	1.7
676.57685	4.3
676.58714	9.95
676.59743	7.85
676.60772	5.05
676.618	2.05
676.62828	3.1
676.63856	-8.2
676.64884	-2.2
676.65911	0.2
676.66938	0.3
676.67965	7.45
676.68992	18.45
676.70018	13.5
676.71044	7.05
676.7207	29.25
676.73096	19.3
676.74121	14.15
676.75146	18.1
676.76171	20.1
676.77196	7.35
676.7822	1.7
676.79245	5.6
676.80269	10.55
676.81292	-4.3
676.82316	-5.45
676.83339	12.5
676.84362	23.05
676.85385	6.7
676.86407	7.55
676.87429	5.35
676.88451	12.45
676.89473	9.3
676.90494	-14.8
676.91516	-11.1
676.92537	-2
676.93557	10.35
676.94578	5.8
676.95598	-4.3
676.96618	-3.55
676.97638	-1.15
676.98657	0.4
676.99677	-4.3
677.00696	7.6
677.01714	20.1
677.02733	13.55
677.03751	12.55
677.04769	7.75
677.05787	4
677.06805	6.3
677.07822	4.3
677.08839	6.8
677.09856	-2.65
677.10872	1.95
677.11889	5.25
677.12905	13.95
677.13921	11.95
677.14936	2.75
677.15951	0.25
677.16967	6.15
677.17981	9.9
677.18996	12
677.2001	-1.05
677.21025	-4.9
677.22038	3.5
677.23052	1.4
677.24065	0.8
677.25078	5.5
677.26091	8.1
677.27104	8
677.28116	2.1
677.29129	3.75
677.3014	3.2
677.31152	9.45
677.32164	36.5
677.33175	3.6
677.34186	3.45
677.35196	8.1
677.36207	11.7
677.37217	16
677.38227	20.55
677.39236	11.55
677.40246	1.2
677.41255	-3.5
677.42264	3
677.43273	7.5
677.44281	6.6
677.45289	11.2
677.46297	-3.8
677.47305	-2
677.48313	-1.75
677.4932	3.85
677.50327	2.6
677.51334	4.25
677.5234	5.45
677.53346	15.65
677.54352	7.35
677.55358	5.2
677.56364	9.85
677.57369	19.4
677.58374	8.9
677.59379	-4.65
677.60383	-1.35
677.61388	6.5
677.62392	7.7
677.63395	7.2
677.64399	11.4
677.65402	14.6
677.66405	9.6
677.67408	1.4
677.68411	2.55
677.69413	10.1
677.70415	8.95
677.71417	12.1
677.72419	-2.85
677.7342	1.5
677.74421	-4.15
677.75422	-3.7
677.76422	2.7
677.77423	9.9
677.78423	18
677.79423	4.5
677.80422	8.7
677.81422	6.3
677.82421	-0.75
677.8342	0.75
677.84418	2.1
677.85417	8.45
677.86415	17.2
677.87413	6.75
677.88411	-1.25
677.89408	8.3
677.90405	7.5
677.91402	8.9
677.92399	12.45
677.93395	27.75
677.94391	14.5
677.95387	0.45
677.96383	1.15
677.97378	6.7
677.98374	1.75
677.99369	7.65
678.00363	18.85
678.01358	1.95
678.02352	3.3
678.03346	8.65
678.0434	0
678.05333	-0.6
678.06326	8.5
678.07319	5.2
678.08312	2.15
678.09305	18.35
678.10297	8.9
678.11289	-0.55
678.12281	10.5
678.13272	6.45
678.14264	-1.15
678.15255	2.95
678.16245	2.7
678.17236	2.4
678.18226	3.3
678.19216	0.7
678.20206	-4.95
678.21196	0.2
678.22185	10.45
678.23174	9.55
678.24163	11.7
678.25151	10.85
678.2614	26.1
678.27128	26.6
678.28116	12.3
678.29103	12.65
678.30091	3.1
678.31078	0.25
678.32065	-1.6
678.33051	5.7
678.34037	3.05
678.35024	-7.4
678.36009	-1.55
678.36995	1.4
678.37981	5.6
678.38966	-5.2
678.39951	0
678.40935	1.05
678.4192	-0.5
678.42904	-4.35
678.43888	3.25
678.44871	6.7
678.45855	13.1
678.46838	13.15
678.47821	1.35
678.48804	4.9
678.49786	20.95
678.50768	24.15
678.5175	10.7
678.52732	11
678.53713	11.3
678.54694	8.35
678.55675	-2.85
678.56656	-5.4
678.57637	-5.6
678.58617	0.5
678.59597	9.7
678.60577	6.3
678.61556	-4.6
678.62535	7.4
678.63514	16.35
678.64493	10.7
678.65472	1.85
678.6645	17.5
678.67428	8.4
678.68406	6.5
678.69383	5.05
678.7036	1.6
678.71337	6.65
678.72314	10.05
678.73291	11.45
678.74267	5.5
678.75243	1.35
678.76219	1.55
678.77195	7.25
678.7817	0.65
678.79145	3.25
678.8012	7.1
678.81094	2.35
678.82069	2.1
678.83043	38.7
678.84017	80.5
678.8499	4.7
678.85964	5.95
678.86937	10.25
678.87909	13.15
678.88882	11.15
678.89854	1.4
678.90827	4.15
678.91798	-2
678.9277	0.25
678.93742	-1.8
678.94713	0
678.95684	0.35
678.96654	8.7
678.97625	7.3
678.98595	8.25
678.99565	-2.15
679.00534	-4.2
679.01504	-1.15
679.02473	-0.1
679.03442	-1.2
679.04411	11.7
679.05379	3.1
679.06347	-2.25
679.07315	-0.05
679.08283	2.2
679.0925	-1.9
679.10218	7.55
679.11185	-0.7
679.12151	0.25
679.13118	7.6
679.14084	-1.4
679.1505	2.45
679.16016	0.45
679.16981	-5.15
679.17946	5.9
679.18911	6.55
679.19876	-3.8
679.20841	9.9
679.21805	12.6
679.22769	7.1
679.23733	11.6
679.24696	20.85
679.2566	5.8
679.26623	4.95
679.27585	8.1
679.28548	-2.55
679.2951	7.4
679.30472	-1.35
679.31434	-4.8
679.32396	-1.8
679.33357	-4.6
679.34318	16.3
679.35279	26.35
679.3624	7
679.372	8.9
679.3816	11.75
679.3912	0.25
679.40079	22.5
679.41039	15.05
679.41998	2.15
679.42957	2.8
679.43915	-0.7
679.44874	6
679.45832	17.25
679.4679	3.95
679.47747	-4.75
679.48705	-5.05
679.49662	8.75
679.50619	11.45
679.51575	2.8
679.52532	2.35
679.53488	11.15
679.54444	4.35
679.554	0.2
679.56355	5.3
679.5731	11.9
679.58265	2.95
679.5922	0.6
679.60174	14.85
679.61129	15.1
679.62083	3.85
679.63036	-8.2
679.6399	-0.3
679.64943	13.4
679.65896	12.9
679.66849	2.45
679.67801	5.75
679.68753	8.3
679.69705	20.4
679.70657	28.6
679.71609	19.25
679.7256	15.35
679.73511	10.95
679.74462	0.2
679.75412	-1.65
679.76362	14.1
679.77312	13.2
679.78262	2.65
679.79212	5.9
679.80161	7.85
679.8111	-1.75
679.82059	-0.6
679.83007	11.3
679.83956	10.8
679.84904	6.85
679.85852	7.9
679.86799	-1.05
679.87747	6.65
679.88694	0.75
679.8964	-1.05
679.90587	1.7
679.91533	8.3
679.92479	5.45
679.93425	3.3
679.94371	12.9
679.95316	12.95
679.96261	14.15
679.97206	8.55
679.98151	0.85
679.99095	-0.55
680.00039	0.45
680.00983	1.45
680.01927	9.5
680.0287	5.05
680.03814	17.55
680.04756	1.15
680.05699	-1
680.06641	5.8
680.07584	1.75
680.08526	-3.75
680.09467	0.6
680.10409	-1.95
680.1135	-1.7
680.12291	4.95
680.13232	13.15
680.14172	17.45
680.15112	7.05
680.16052	1.5
680.16992	5.4
680.17931	10.55
680.18871	9.5
680.1981	-3.95
680.20748	-1.85
680.21687	-0.65
