Data from HR4C25001_14-22-03-715.txt Node
Date: Mon Jun 15 14:22:03 CDT 2026
User: jam28248
Spectrometer: HR4C2500
Trigger mode: 4
Integration Time (sec): 7.500000E-2
Scans to average: 20
Electric dark correction enabled: true
Nonlinearity correction enabled: false
Boxcar width: 0
XAxis mode: Wavelengths
Number of Pixels in Spectrum: 3648
>>>>>Begin Spectral Data<<<<<
629.66646	-22.46
629.6848	-22.46
629.70313	-22.46
629.72147	-49.46
629.7398	-37.11
629.75812	-0.71
629.77645	0.24
629.79477	6.74
629.81309	-0.86
629.83141	-6.56
629.84972	5.24
629.86803	3.69
629.88634	9.64
629.90465	-11.46
629.92295	-9.56
629.94126	-2.76
629.95956	3.24
629.97785	3.09
629.99615	-1.76
630.01444	17.04
630.03273	14.09
630.05102	13.79
630.0693	5.44
630.08759	12.74
630.10587	2.94
630.12415	2.99
630.14242	6.49
630.16069	-9.86
630.17896	3.19
630.19723	11.24
630.2155	20.89
630.23376	65.94
630.25202	27.14
630.27028	22.14
630.28854	13.04
630.30679	4.29
630.32504	5.09
630.34329	8.94
630.36153	9.19
630.37978	22.89
630.39802	11.94
630.41626	3.69
630.43449	-1.96
630.45273	0.59
630.47096	10.39
630.48919	5.14
630.50741	13.04
630.52564	5.64
630.54386	12.69
630.56208	23.39
630.58029	7.59
630.59851	6.34
630.61672	7.54
630.63493	14.54
630.65313	10.54
630.67134	9.94
630.68954	3.84
630.70774	13.34
630.72594	16.49
630.74413	3.44
630.76232	-3.66
630.78051	-1.56
630.7987	3.54
630.81688	6.19
630.83507	14.34
630.85325	12.74
630.87142	6.14
630.8896	12.54
630.90777	1.39
630.92594	-6.91
630.94411	19.49
630.96227	26.79
630.98043	39.19
630.99859	12.34
631.01675	7.99
631.03491	0.59
631.05306	-3.21
631.07121	10.04
631.08936	11.54
631.1075	-2.71
631.12564	7.99
631.14379	10.39
631.16192	14.69
631.18006	11.69
631.19819	10.74
631.21632	8.24
631.23445	-2.51
631.25258	4.09
631.2707	8.94
631.28882	8.24
631.30694	14.24
631.32505	3.99
631.34317	10.79
631.36128	4.49
631.37939	13.19
631.39749	5.34
631.4156	5.64
631.4337	0.64
631.4518	7.04
631.46989	-4.26
631.48799	0.99
631.50608	1.74
631.52417	-5.71
631.54225	6.69
631.56034	5.54
631.57842	7.79
631.5965	2.64
631.61457	-10.31
631.63265	-2.61
631.65072	4.54
631.66879	0.24
631.68685	13.34
631.70492	23.74
631.72298	18.79
631.74104	3.99
631.7591	0.94
631.77715	4.24
631.7952	12.79
631.81325	16.94
631.8313	1.69
631.84934	14.29
631.86739	17.09
631.88543	6.19
631.90346	9.99
631.9215	0.74
631.93953	6.94
631.95756	2.64
631.97559	9.49
631.99361	-2.71
632.01163	-5.36
632.02965	9.29
632.04767	16.09
632.06569	16.49
632.0837	9.69
632.10171	3.44
632.11972	-3.16
632.13772	5.39
632.15573	18.44
632.17373	1.29
632.19172	-3.21
632.20972	2.24
632.22771	-5.21
632.2457	1.14
632.26369	4.49
632.28168	13.89
632.29966	5.09
632.31764	8.94
632.33562	5.74
632.35359	9.84
632.37157	6.79
632.38954	7.59
632.40751	5.54
632.42547	-1.66
632.44344	17.94
632.4614	11.24
632.47936	1.49
632.49731	2.79
632.51527	4.09
632.53322	15.24
632.55117	11.59
632.56911	4.64
632.58706	2.49
632.605	4.24
632.62294	7.99
632.64087	8.69
632.65881	-7.66
632.67674	2.29
632.69467	0.09
632.7126	4.29
632.73052	11.24
632.74844	8.04
632.76636	9.49
632.78428	15.64
632.80219	19.34
632.8201	26.94
632.83801	5.19
632.85592	2.59
632.87383	15.34
632.89173	3.34
632.90963	-2.06
632.92753	8.19
632.94542	8.59
632.96331	10.84
632.9812	9.29
632.99909	6.99
633.01697	1.29
633.03486	8.24
633.05274	4.14
633.07061	6.84
633.08849	7.39
633.10636	10.94
633.12423	15.89
633.1421	7.04
633.15997	20.24
633.17783	10.94
633.19569	11.44
633.21355	16.04
633.2314	12.64
633.24926	-3.91
633.26711	0.29
633.28495	8.59
633.3028	-0.81
633.32064	2.19
633.33848	12.29
633.35632	21.59
633.37416	18.19
633.39199	6.04
633.40982	-3.46
633.42765	6.79
633.44548	4.04
633.4633	-4.81
633.48112	-4.76
633.49894	-4.91
633.51676	2.44
633.53457	0.59
633.55238	7.09
633.57019	2.59
633.588	-1.51
633.6058	-2.26
633.6236	7.09
633.6414	7.44
633.6592	-1.66
633.67699	-4.96
633.69478	0.34
633.71257	15.79
633.73036	15.39
633.74815	-1.71
633.76593	-1.16
633.78371	5.44
633.80148	4.24
633.81926	0.69
633.83703	-1.11
633.8548	-18.56
633.87257	-15.11
633.89033	-5.51
633.90809	8.29
633.92585	2.34
633.94361	-0.01
633.96137	2.34
633.97912	8.94
633.99687	-8.76
634.01462	5.74
634.03236	14.29
634.0501	13.14
634.06784	-4.21
634.08558	11.94
634.10332	14.59
634.12105	0.14
634.13878	10.79
634.15651	10.54
634.17423	8.99
634.19196	1.89
634.20968	3.69
634.22739	13.54
634.24511	13.24
634.26282	15.24
634.28053	20.39
634.29824	9.74
634.31595	9.84
634.33365	2.79
634.35135	-4.26
634.36905	-9.81
634.38675	2.69
634.40444	3.74
634.42213	-4.01
634.43982	-0.36
634.4575	-3.01
634.47519	8.04
634.49287	17.34
634.51055	-0.36
634.52822	4.54
634.5459	2.64
634.56357	0.89
634.58124	-11.26
634.59891	5.79
634.61657	6.44
634.63423	11.39
634.65189	16.99
634.66955	1.04
634.6872	10.09
634.70485	4.64
634.7225	1.14
634.74015	11.99
634.75779	4.24
634.77544	3.94
634.79307	0.69
634.81071	15.24
634.82835	4.79
634.84598	-2.46
634.86361	-1.71
634.88123	8.44
634.89886	2.99
634.91648	2.14
634.9341	-0.06
634.95172	6.94
634.96933	6.44
634.98695	11.14
635.00456	-0.46
635.02216	10.74
635.03977	11.19
635.05737	4.39
635.07497	-0.86
635.09257	7.74
635.11016	12.99
635.12776	8.19
635.14535	0.44
635.16294	15.49
635.18052	6.49
635.1981	9.69
635.21569	8.74
635.23326	3.64
635.25084	10.44
635.26841	2.94
635.28598	4.29
635.30355	0.79
635.32112	-2.66
635.33868	-9.56
635.35624	-2.66
635.3738	4.84
635.39136	-1.61
635.40891	-3.06
635.42646	7.89
635.44401	8.04
635.46155	-2.91
635.4791	2.19
635.49664	4.59
635.51418	12.44
635.53171	3.44
635.54925	-0.46
635.56678	-1.21
635.58431	5.24
635.60184	20.64
635.61936	19.29
635.63688	0.29
635.6544	5.39
635.67192	-0.86
635.68943	5.84
635.70694	3.69
635.72445	7.54
635.74196	-5.76
635.75946	-6.91
635.77697	-2.61
635.79447	3.59
635.81196	16.29
635.82946	0.54
635.84695	-10.06
635.86444	5.94
635.88193	4.14
635.89941	11.29
635.91689	5.64
635.93437	0.69
635.95185	-2.71
635.96933	-6.11
635.9868	9.64
636.00427	30.84
636.02174	8.49
636.0392	0.59
636.05666	18.69
636.07412	5.64
636.09158	3.29
636.10904	-2.76
636.12649	4.04
636.14394	1.24
636.16139	16.14
636.17883	2.84
636.19628	-1.51
636.21372	-3.26
636.23116	-0.26
636.24859	-3.91
636.26602	-2.51
636.28345	7.09
636.30088	5.39
636.31831	-0.76
636.33573	0.29
636.35315	4.19
636.37057	8.29
636.38799	4.69
636.4054	7.79
636.42281	10.69
636.44022	4.59
636.45763	-2.71
636.47503	-5.41
636.49243	-8.51
636.50983	-8.96
636.52723	-4.01
636.54462	-0.81
636.56201	-0.36
636.5794	-8.41
636.59679	-8.06
636.61417	2.64
636.63155	-2.81
636.64893	12.49
636.66631	10.39
636.68368	-0.46
636.70106	-6.26
636.71843	-8.31
636.73579	-4.26
636.75316	6.19
636.77052	3.59
636.78788	7.89
636.80524	-0.21
636.82259	-8.46
636.83994	-6.06
636.85729	-7.41
636.87464	-10.71
636.89198	-4.11
636.90933	15.14
636.92667	12.04
636.944	-2.06
636.96134	-7.06
636.97867	0.99
636.996	5.59
637.01333	10.84
637.03066	4.19
637.04798	-11.71
637.0653	-0.11
637.08262	3.39
637.09993	-0.31
637.11724	-6.56
637.13455	6.39
637.15186	12.84
637.16917	3.09
637.18647	-0.16
637.20377	7.39
637.22107	3.09
637.23837	5.09
637.25566	24.54
637.27295	2.94
637.29024	7.84
637.30752	-4.81
637.32481	-2.51
637.34209	3.39
637.35937	15.89
637.37664	6.24
637.39392	6.74
637.41119	-1.51
637.42846	3.64
637.44572	-6.41
637.46299	0.29
637.48025	19.19
637.49751	4.59
637.51476	-5.71
637.53202	7.94
637.54927	-1.11
637.56652	6.64
637.58376	6.39
637.60101	-1.71
637.61825	6.64
637.63549	6.94
637.65273	4.49
637.66996	0.39
637.68719	4.29
637.70442	0.64
637.72165	5.09
637.73887	7.19
637.7561	10.94
637.77332	6.99
637.79053	1.14
637.80775	8.74
637.82496	3.89
637.84217	7.49
637.85938	0.24
637.87658	6.44
637.89378	2.89
637.91098	-2.91
637.92818	-6.61
637.94538	7.89
637.96257	13.09
637.97976	6.79
637.99695	0.79
638.01413	-9.86
638.03132	-4.36
638.0485	-0.51
638.06567	-8.36
638.08285	2.54
638.10002	3.79
638.11719	-2.31
638.13436	-1.41
638.15153	3.44
638.16869	-8.46
638.18585	-3.51
638.20301	-6.41
638.22016	-14.06
638.23732	-15.36
638.25447	-7.46
638.27162	-6.81
638.28876	-7.86
638.30591	-9.21
638.32305	3.59
638.34019	10.94
638.35732	12.09
638.37446	12.54
638.39159	-2.31
638.40872	-7.26
638.42584	-0.66
638.44297	-1.21
638.46009	-6.86
638.47721	2.54
638.49432	13.79
638.51144	5.34
638.52855	4.94
638.54566	-3.06
638.56276	1.24
638.57987	2.24
638.59697	2.84
638.61407	-0.56
638.63117	-2.51
638.64826	1.24
638.66535	-0.86
638.68244	-0.01
638.69953	3.39
638.71661	7.99
638.7337	1.19
638.75078	-0.56
638.76785	1.44
638.78493	-1.46
638.802	-4.71
638.81907	2.04
638.83614	6.64
638.8532	9.89
638.87026	-3.01
638.88732	-8.61
638.90438	-0.51
638.92144	9.84
638.93849	10.59
638.95554	9.44
638.97259	3.44
638.98963	6.49
639.00668	11.09
639.02372	9.59
639.04075	13.29
639.05779	9.44
639.07482	6.49
639.09185	7.44
639.10888	-9.96
639.12591	-12.86
639.14293	-1.81
639.15995	5.74
639.17697	19.09
639.19398	21.19
639.211	26.49
639.22801	17.99
639.24502	3.54
639.26202	0.99
639.27903	-2.56
639.29603	6.99
639.31303	16.49
639.33002	-0.56
639.34702	6.14
639.36401	3.44
639.381	1.09
639.39798	5.94
639.41497	10.64
639.43195	11.54
639.44893	-0.61
639.4659	7.54
639.48288	8.69
639.49985	14.89
639.51682	6.04
639.53379	-7.41
639.55075	-9.46
639.56771	-14.96
639.58467	-4.06
639.60163	2.74
639.61858	0.84
639.63553	4.49
639.65248	6.64
639.66943	-5.81
639.68638	-0.96
639.70332	9.69
639.72026	14.44
639.73719	5.29
639.75413	11.94
639.77106	19.54
639.78799	30.94
639.80492	24.79
639.82184	7.74
639.83877	3.19
639.85569	6.29
639.8726	1.19
639.88952	5.79
639.90643	-1.96
639.92334	3.79
639.94025	1.59
639.95716	5.39
639.97406	6.14
639.99096	11.49
640.00786	5.04
640.02475	3.14
640.04165	-2.11
640.05854	3.89
640.07542	1.99
640.09231	8.29
640.10919	4.14
640.12607	6.69
640.14295	-3.71
640.15983	-0.91
640.1767	1.34
640.19357	-2.51
640.21044	-2.46
640.22731	4.94
640.24417	11.39
640.26103	15.14
640.27789	14.34
640.29475	1.39
640.3116	-12.21
640.32845	-7.96
640.3453	1.84
640.36215	-0.91
640.37899	3.44
640.39583	20.74
640.41267	26.99
640.42951	0.79
640.44634	-12.56
640.46317	0.39
640.48	-3.21
640.49683	-8.71
640.51365	-7.31
640.53048	-1.41
640.5473	1.04
640.56411	0.34
640.58093	9.24
640.59774	14.99
640.61455	1.39
640.63136	0.99
640.64816	-4.41
640.66496	-0.96
640.68176	9.64
640.69856	-2.86
640.71535	-2.21
640.73215	-1.26
640.74894	-0.86
640.76572	16.09
640.78251	14.39
640.79929	4.94
640.81607	7.14
640.83285	6.39
640.84963	10.74
640.8664	13.44
640.88317	25.19
640.89994	5.09
640.9167	1.29
640.93346	-4.21
640.95022	-7.31
640.96698	1.89
640.98374	-2.91
641.00049	-5.41
641.01724	-6.31
641.03399	-6.96
641.05074	-4.21
641.06748	-2.06
641.08422	7.09
641.10096	4.24
641.11769	12.39
641.13443	3.34
641.15116	-1.51
641.16789	0.09
641.18461	-4.26
641.20134	16.59
641.21806	11.99
641.23478	-0.51
641.25149	4.99
641.26821	16.49
641.28492	1.49
641.30163	3.34
641.31833	-2.71
641.33504	-2.61
641.35174	0.24
641.36844	6.34
641.38514	6.89
641.40183	5.04
641.41852	7.39
641.43521	8.54
641.4519	24.74
641.46858	16.69
641.48526	-1.01
641.50194	2.59
641.51862	-2.21
641.53529	2.24
641.55197	20.29
641.56864	17.44
641.5853	-0.41
641.60197	-0.61
641.61863	7.24
641.63529	-6.91
641.65195	-4.31
641.6686	8.09
641.68526	11.64
641.70191	16.59
641.71855	22.44
641.7352	17.79
641.75184	3.99
641.76848	-1.76
641.78512	0.59
641.80175	-0.51
641.81839	12.14
641.83502	17.54
641.85164	12.19
641.86827	13.69
641.88489	7.44
641.90151	-0.71
641.91813	1.84
641.93475	7.69
641.95136	3.39
641.96797	-3.56
641.98458	-8.91
642.00119	5.04
642.01779	6.54
642.03439	4.64
642.05099	4.24
642.06758	-7.06
642.08418	0.64
642.10077	2.69
642.11736	6.14
642.13394	5.39
642.15053	4.04
642.16711	-3.91
642.18369	-5.11
642.20026	5.69
642.21684	13.34
642.23341	17.94
642.24998	12.94
642.26654	16.64
642.28311	12.04
642.29967	3.19
642.31623	-7.61
642.33279	3.84
642.34934	2.49
642.36589	-9.06
642.38244	-9.51
642.39899	40.54
642.41553	96.04
642.43207	14.04
642.44861	-13.31
642.46515	-3.56
642.48169	4.04
642.49822	0.24
642.51475	2.89
642.53127	-5.46
642.5478	-0.06
642.56432	9.19
642.58084	8.64
642.59736	5.29
642.61387	8.84
642.63039	11.54
642.6469	9.89
642.6634	22.24
642.67991	0.54
642.69641	4.69
642.71291	1.84
642.72941	12.19
642.74591	16.04
642.7624	5.54
642.77889	2.99
642.79538	-5.86
642.81186	-8.41
642.82834	-11.16
642.84483	-5.96
642.8613	3.04
642.87778	-3.71
642.89425	10.29
642.91072	35.09
642.92719	1.24
642.94366	2.44
642.96012	15.49
642.97658	5.19
642.99304	4.74
643.0095	6.74
643.02595	1.49
643.0424	0.74
643.05885	10.04
643.0753	-4.01
643.09174	-8.96
643.10818	-9.21
643.12462	-6.71
643.14106	-3.46
643.15749	-3.36
643.17392	3.79
643.19035	26.84
643.20678	21.14
643.2232	2.14
643.23962	10.79
643.25604	5.89
643.27246	-1.46
643.28887	0.19
643.30528	6.54
643.32169	10.54
643.3381	4.24
643.35451	1.79
643.37091	9.49
643.38731	6.14
643.4037	-4.16
643.4201	-0.91
643.43649	8.99
643.45288	18.14
643.46927	8.04
643.48565	2.34
643.50204	10.24
643.51842	7.64
643.53479	-3.01
643.55117	6.84
643.56754	1.84
643.58391	5.99
643.60028	2.84
643.61664	7.99
643.63301	9.29
643.64937	9.59
643.66572	1.99
643.68208	-5.91
643.69843	-1.96
643.71478	-3.36
643.73113	0.54
643.74748	-4.31
643.76382	4.64
643.78016	4.84
643.7965	11.99
643.81283	11.49
643.82917	13.99
643.8455	5.19
643.86183	15.79
643.87815	19.54
643.89448	16.54
643.9108	10.14
643.92712	5.14
643.94343	11.19
643.95974	-5.21
643.97606	-7.56
643.99236	5.94
644.00867	15.44
644.02497	3.79
644.04128	2.69
644.05758	6.89
644.07387	11.79
644.09017	9.09
644.10646	8.04
644.12275	2.74
644.13903	3.24
644.15532	3.14
644.1716	-3.36
644.18788	19.84
644.20415	8.59
644.22043	6.04
644.2367	8.34
644.25297	3.64
644.26924	5.84
644.2855	9.24
644.30176	3.39
644.31802	3.74
644.33428	12.44
644.35054	20.69
644.36679	4.94
644.38304	4.09
644.39928	3.84
644.41553	8.99
644.43177	0.44
644.44801	-5.86
644.46425	-3.61
644.48048	4.79
644.49672	1.64
644.51295	3.59
644.52917	5.29
644.5454	13.39
644.56162	3.94
644.57784	9.24
644.59406	3.59
644.61028	9.14
644.62649	6.54
644.6427	8.39
644.65891	2.84
644.67511	-8.26
644.69132	-1.31
644.70752	4.24
644.72372	8.84
644.73991	6.24
644.7561	7.64
644.7723	13.79
644.78848	23.24
644.80467	17.54
644.82085	4.99
644.83703	11.94
644.85321	21.79
644.86939	13.74
644.88556	15.89
644.90173	18.29
644.9179	22.69
644.93407	12.99
644.95023	23.04
644.96639	10.29
644.98255	12.04
644.99871	7.34
645.01486	7.04
645.03102	14.74
645.04716	14.79
645.06331	16.19
645.07946	42.09
645.0956	79.64
645.11174	20.69
645.12787	23.29
645.14401	10.99
645.16014	14.14
645.17627	9.54
645.1924	9.29
645.20852	18.54
645.22464	7.19
645.24076	20.79
645.25688	29.84
645.27299	18.39
645.28911	15.69
645.30522	2.49
645.32132	9.59
645.33743	14.24
645.35353	9.94
645.36963	3.99
645.38573	5.19
645.40182	6.59
645.41792	6.84
645.43401	1.14
645.45009	9.79
645.46618	15.69
645.48226	3.29
645.49834	7.69
645.51442	-0.16
645.5305	3.64
645.54657	12.49
645.56264	14.19
645.57871	6.59
645.59477	12.24
645.61084	7.54
645.6269	16.89
645.64296	15.54
645.65901	14.99
645.67507	11.64
645.69112	4.84
645.70716	3.74
645.72321	-0.31
645.73925	6.94
645.7553	6.34
645.77133	-1.76
645.78737	7.64
645.8034	17.59
645.81944	19.99
645.83546	5.79
645.85149	29.64
645.86751	10.99
645.88354	1.64
645.89955	1.49
645.91557	3.29
645.93159	-1.41
645.9476	5.99
645.96361	6.44
645.97961	8.19
645.99562	9.64
646.01162	12.54
646.02762	8.44
646.04361	0.74
646.05961	-1.46
646.0756	-0.16
646.09159	9.74
646.10758	1.29
646.12356	9.54
646.13954	11.14
646.15552	6.64
646.1715	15.69
646.18748	10.84
646.20345	3.39
646.21942	-3.21
646.23539	13.79
646.25135	21.14
646.26731	3.54
646.28327	12.39
646.29923	6.84
646.31519	17.74
646.33114	21.39
646.34709	12.84
646.36304	1.84
646.37898	-1.86
646.39493	-4.61
646.41087	0.69
646.4268	0.69
646.44274	1.39
646.45867	2.54
646.4746	8.64
646.49053	4.49
646.50646	0.04
646.52238	-9.31
646.5383	-4.51
646.55422	-2.71
646.57014	0.14
646.58605	3.19
646.60196	9.54
646.61787	5.14
646.63377	5.09
646.64968	6.64
646.66558	3.74
646.68148	-0.26
646.69737	5.94
646.71327	4.04
646.72916	-0.26
646.74505	4.04
646.76093	12.39
646.77682	10.24
646.7927	2.09
646.80858	1.59
646.82446	-10.21
646.84033	-2.26
646.8562	-1.06
646.87207	1.34
646.88794	7.54
646.9038	-4.66
646.91966	3.64
646.93552	3.14
646.95138	-0.86
646.96723	3.74
646.98309	14.94
646.99894	6.54
647.01478	3.24
647.03063	15.94
647.04647	3.24
647.06231	-3.76
647.07815	-5.86
647.09398	-5.16
647.10981	1.29
647.12564	-1.96
647.14147	4.04
647.1573	17.34
647.17312	5.94
647.18894	1.59
647.20476	-9.76
647.22057	-11.36
647.23638	-3.66
647.25219	-2.96
647.268	-6.56
647.28381	-1.81
647.29961	13.44
647.31541	1.84
647.33121	1.59
647.34701	9.19
647.3628	0.04
647.37859	7.19
647.39438	8.04
647.41016	7.94
647.42595	5.94
647.44173	0.74
647.45751	-1.46
647.47328	2.69
647.48905	4.79
647.50483	13.19
647.52059	8.49
647.53636	2.49
647.55212	-5.01
647.56789	14.69
647.58364	43.19
647.5994	5.49
647.61515	-1.16
647.63091	1.49
647.64665	1.29
647.6624	-0.86
647.67814	-5.56
647.69389	-9.51
647.70963	-3.76
647.72536	-10.21
647.7411	-11.76
647.75683	-4.11
647.77256	1.39
647.78828	5.09
647.80401	3.39
647.81973	5.04
647.83545	7.09
647.85117	3.44
647.86688	-0.36
647.88259	-0.56
647.8983	4.54
647.91401	11.89
647.92971	15.79
647.94542	-2.01
647.96112	3.64
647.97681	9.24
647.99251	7.59
648.0082	9.39
648.02389	7.39
648.03958	-0.96
648.05526	0.04
648.07095	2.49
648.08663	0.39
648.1023	-8.96
648.11798	-6.16
648.13365	-5.66
648.14932	0.89
648.16499	4.29
648.18066	1.14
648.19632	-2.66
648.21198	-2.96
648.22764	-1.71
648.24329	3.49
648.25895	13.49
648.2746	2.99
648.29025	-1.26
648.30589	3.89
648.32153	7.09
648.33718	-0.06
648.35281	14.34
648.36845	38.09
648.38408	69.49
648.39971	4.39
648.41534	-5.41
648.43097	3.09
648.44659	10.59
648.46221	17.44
648.47783	9.19
648.49345	-2.76
648.50906	5.44
648.52467	7.04
648.54028	0.34
648.55589	-3.21
648.57149	11.89
648.5871	4.74
648.6027	-2.46
648.61829	6.19
648.63389	8.24
648.64948	7.94
648.66507	8.44
648.68065	-1.51
648.69624	5.54
648.71182	18.74
648.7274	19.24
648.74298	15.39
648.75855	24.19
648.77412	18.44
648.78969	1.59
648.80526	-5.56
648.82083	0.79
648.83639	4.44
648.85195	-3.76
648.8675	1.29
648.88306	7.04
648.89861	1.29
648.91416	0.49
648.92971	7.04
648.94526	18.19
648.9608	17.64
648.97634	10.79
648.99188	4.79
649.00741	6.14
649.02294	2.64
649.03847	6.19
649.054	-2.06
649.06953	4.64
649.08505	-3.61
649.10057	3.99
649.11609	-2.31
649.13161	4.89
649.14712	-1.46
649.16263	-2.21
649.17814	-0.16
649.19364	1.04
649.20915	18.94
649.22465	21.49
649.24015	17.24
649.25564	24.94
649.27114	8.54
649.28663	1.34
649.30212	-1.26
649.3176	-0.06
649.33309	-8.16
649.34857	1.34
649.36405	7.84
649.37952	14.59
649.395	13.19
649.41047	13.99
649.42594	9.69
649.4414	-0.36
649.45687	4.39
649.47233	-1.96
649.48779	1.84
649.50324	13.14
649.5187	14.79
649.53415	11.04
649.5496	12.09
649.56505	13.64
649.58049	12.89
649.59593	9.04
649.61137	5.09
649.62681	8.34
649.64224	-0.01
649.65768	-1.71
649.67311	17.09
649.68853	18.64
649.70396	12.39
649.71938	15.24
649.7348	6.94
649.75022	18.39
649.76563	5.54
649.78105	8.44
649.79646	-4.26
649.81186	5.99
649.82727	11.24
649.84267	1.14
649.85807	6.29
649.87347	-3.36
649.88886	1.24
649.90426	8.64
649.91965	2.44
649.93504	-1.86
649.95042	8.09
649.9658	-0.26
649.98119	0.49
649.99656	6.84
650.01194	2.64
650.02731	2.09
650.04268	2.19
650.05805	-2.16
650.07342	-0.51
650.08878	4.24
650.10414	6.64
650.1195	-2.81
650.13486	0.19
650.15021	-1.21
650.16556	5.74
650.18091	5.29
650.19626	10.34
650.2116	13.04
650.22694	3.89
650.24228	13.04
650.25762	5.44
650.27295	5.19
650.28828	2.59
650.30361	6.74
650.31894	-0.71
650.33426	-5.91
650.34958	2.84
650.3649	23.19
650.38022	12.14
650.39553	-2.16
650.41085	3.74
650.42616	4.29
650.44146	7.14
650.45677	6.99
650.47207	6.39
650.48737	14.94
650.50267	-3.66
650.51796	-8.01
650.53325	4.49
650.54854	14.24
650.56383	13.19
650.57911	4.74
650.5944	4.84
650.60968	6.09
650.62495	11.19
650.64023	7.74
650.6555	-4.41
650.67077	-1.66
650.68604	1.99
650.70131	6.74
650.71657	6.49
650.73183	13.69
650.74709	7.29
650.76234	5.84
650.77759	8.39
650.79285	8.64
650.80809	5.74
650.82334	4.39
650.83858	3.29
650.85382	7.34
650.86906	10.84
650.8843	24.19
650.89953	8.59
650.91476	3.74
650.92999	-2.21
650.94522	3.29
650.96044	7.84
650.97566	8.19
650.99088	0.99
651.00609	-2.96
651.02131	-1.21
651.03652	3.09
651.05173	4.59
651.06693	-11.76
651.08214	-7.16
651.09734	-5.91
651.11254	-1.36
651.12773	-4.91
651.14293	7.24
651.15812	0.34
651.17331	2.44
651.1885	16.14
651.20368	-0.06
651.21886	-6.41
651.23404	7.99
651.24922	13.74
651.26439	5.44
651.27956	4.19
651.29473	-2.16
651.3099	12.74
651.32507	-9.86
651.34023	-1.16
651.35539	-2.31
651.37054	-11.61
651.3857	-18.46
651.40085	-2.81
651.416	6.59
651.43115	1.84
651.44629	-3.01
651.46144	-5.11
651.47658	5.04
651.49171	19.49
651.50685	13.44
651.52198	6.19
651.53711	1.04
651.55224	-6.16
651.56736	2.59
651.58249	10.24
651.59761	12.29
651.61273	-9.46
651.62784	2.24
651.64295	0.59
651.65806	-4.36
651.67317	-2.46
651.68828	-3.56
651.70338	5.49
651.71848	13.79
651.73358	18.94
651.74868	-2.16
651.76377	1.54
651.77886	2.24
651.79395	-1.76
651.80904	-5.66
651.82412	9.74
651.8392	1.49
651.85428	2.29
651.86935	8.09
651.88443	12.84
651.8995	6.34
651.91457	-3.01
651.92963	-0.41
651.9447	20.44
651.95976	9.09
651.97482	4.04
651.98988	3.59
652.00493	-6.36
652.01998	2.04
652.03503	14.09
652.05008	23.89
652.06512	59.94
652.08016	6.19
652.0952	1.24
652.11024	27.74
652.12527	11.84
652.14031	4.59
652.15534	5.24
652.17036	13.39
652.18539	3.09
652.20041	6.24
652.21543	7.34
652.23045	-1.86
652.24546	4.34
652.26047	10.79
652.27548	10.29
652.29049	7.94
652.3055	2.19
652.3205	9.99
652.3355	5.74
652.3505	1.04
652.36549	2.74
652.38048	8.84
652.39547	12.74
652.41046	7.49
652.42545	16.59
652.44043	16.34
652.45541	3.04
652.47039	11.04
652.48536	3.84
652.50034	-6.91
652.51531	-7.11
652.53028	1.19
652.54524	0.34
652.5602	-0.61
652.57517	-6.01
652.59012	30.94
652.60508	74.34
652.62003	10.74
652.63498	-0.71
652.64993	-1.76
652.66488	-5.51
652.67982	2.29
652.69476	8.79
652.7097	-2.36
652.72464	-7.06
652.73957	3.19
652.7545	8.39
652.76943	19.39
652.78436	4.19
652.79928	7.54
652.8142	10.84
652.82912	5.39
652.84404	2.09
652.85895	-9.06
652.87387	1.44
652.88877	11.29
652.90368	12.44
652.91859	-7.46
652.93349	-1.61
652.94839	3.64
652.96328	3.49
652.97818	-3.51
652.99307	0.99
653.00796	8.14
653.02285	1.84
653.03773	3.04
653.05261	-2.51
653.06749	-2.21
653.08237	-1.36
653.09725	0.99
653.11212	4.54
653.12699	-0.31
653.14186	12.64
653.15672	17.19
653.17158	2.59
653.18644	14.34
653.2013	5.54
653.21616	5.94
653.23101	10.94
653.24586	-3.61
653.26071	-9.11
653.27555	10.74
653.29039	12.34
653.30524	-0.96
653.32007	-0.71
653.33491	130.09
653.34974	318.29
653.36457	27.79
653.3794	1.94
653.39423	-5.31
653.40905	-3.31
653.42387	-2.71
653.43869	2.14
653.45351	-2.86
653.46832	-10.21
653.48313	-6.31
653.49794	1.44
653.51274	9.64
653.52755	12.44
653.54235	6.04
653.55715	-5.86
653.57194	-4.26
653.58674	6.24
653.60153	5.94
653.61632	0.19
653.6311	-7.41
653.64589	-3.46
653.66067	8.89
653.67545	3.99
653.69023	-6.86
653.705	-7.61
653.71977	-3.91
653.73454	-5.01
653.74931	-3.86
653.76407	1.74
653.77883	2.99
653.79359	5.79
653.80835	-0.46
653.8231	0.49
653.83786	7.74
653.85261	20.04
653.86735	9.34
653.8821	32.24
653.89684	6.94
653.91158	3.14
653.92632	12.19
653.94105	8.94
653.95579	13.19
653.97052	-5.21
653.98524	-9.01
653.99997	2.29
654.01469	1.09
654.02941	5.04
654.04413	11.69
654.05884	4.79
654.07356	14.19
654.08827	46.84
654.10297	86.84
654.11768	18.04
654.13238	16.39
654.14708	9.84
654.16178	-3.11
654.17648	-1.31
654.19117	-7.76
654.20586	-10.71
654.22055	1.44
654.23524	3.64
654.24992	34.09
654.2646	59.44
654.27928	18.49
654.29395	15.99
654.30863	23.44
654.3233	24.84
654.33797	13.84
654.35263	11.94
654.3673	15.49
654.38196	13.19
654.39662	-8.51
654.41127	1.34
654.42593	7.94
654.44058	9.34
654.45523	-5.76
654.46987	-5.76
654.48452	6.29
654.49916	7.59
654.5138	6.19
654.52844	5.79
654.54307	7.44
654.5577	17.24
654.57233	6.84
654.58696	6.19
654.60158	4.94
654.6162	0.69
654.63082	-0.81
654.64544	6.19
654.66005	-1.46
654.67467	-2.11
654.68928	8.09
654.70388	10.39
654.71849	12.14
654.73309	43.44
654.74769	87.29
654.76229	10.04
654.77688	13.89
654.79148	9.59
654.80607	-0.06
654.82065	12.94
654.83524	11.89
654.84982	7.34
654.8644	-0.16
654.87898	-1.26
654.89355	3.34
654.90813	5.04
654.9227	-0.51
654.93727	-4.06
654.95183	0.84
654.96639	5.84
654.98095	8.29
654.99551	1.04
655.01007	8.94
655.02462	-6.31
655.03917	-3.26
655.05372	-2.36
655.06827	-0.66
655.08281	7.04
655.09735	2.39
655.11189	0.64
655.12643	1.19
655.14096	0.69
655.15549	4.14
655.17002	-4.96
655.18454	-4.36
655.19907	2.14
655.21359	12.39
655.22811	16.84
655.24262	6.24
655.25714	4.19
655.27165	3.09
655.28616	-8.81
655.30067	-3.81
655.31517	-1.71
655.32967	0.39
655.34417	2.54
655.35867	-1.91
655.37316	-1.16
655.38765	-10.51
655.40214	6.84
655.41663	12.69
655.43111	5.79
655.4456	12.69
655.46008	-6.36
655.47455	-5.56
655.48903	-0.11
655.5035	1.69
655.51797	0.69
655.53244	7.04
655.5469	15.34
655.56136	21.04
655.57582	5.79
655.59028	1.59
655.60474	-9.66
655.61919	0.24
655.63364	17.79
655.64809	22.54
655.66253	5.24
655.67697	-2.91
655.69141	8.19
655.70585	5.64
655.72029	1.89
655.73472	-0.51
655.74915	-4.96
655.76358	-1.76
655.778	5.64
655.79243	20.74
655.80685	9.99
655.82127	-0.66
655.83568	4.24
655.8501	24.49
655.86451	11.59
655.87891	14.89
655.89332	7.59
655.90772	-3.26
655.92212	-4.36
655.93652	17.04
655.95092	10.84
655.96531	4.89
655.9797	-3.46
655.99409	6.59
656.00848	1.99
656.02286	9.69
656.03724	9.34
656.05162	2.59
656.066	-7.11
656.08037	-3.21
656.09475	0.29
656.10911	-2.16
656.12348	5.64
656.13784	7.29
656.15221	6.34
656.16657	16.54
656.18092	8.49
656.19528	10.74
656.20963	5.74
656.22398	-0.51
656.23833	12.19
656.25267	15.89
656.26701	18.99
656.28135	-0.21
656.29569	0.54
656.31002	8.59
656.32436	20.09
656.33869	19.39
656.35301	3.94
656.36734	5.99
656.38166	-5.56
656.39598	-8.56
656.4103	-9.01
656.42461	-2.26
656.43892	-0.26
656.45323	-1.71
656.46754	-0.31
656.48185	-0.86
656.49615	-0.26
656.51045	5.04
656.52475	4.29
656.53904	1.19
656.55334	-4.31
656.56763	0.09
656.58192	3.39
656.5962	1.99
656.61048	-3.46
656.62476	0.59
656.63904	4.19
656.65332	3.34
656.66759	-0.11
656.68186	-1.31
656.69613	3.64
656.7104	0.94
656.72466	12.99
656.73892	11.24
656.75318	13.59
656.76744	-0.56
656.78169	2.74
656.79594	19.44
656.81019	30.69
656.82444	-3.96
656.83868	-0.26
656.85292	4.44
656.86716	2.49
656.8814	9.04
656.89563	2.14
656.90986	-3.06
656.92409	0.89
656.93832	6.64
656.95254	7.09
656.96676	5.89
656.98098	14.54
656.9952	2.39
657.00941	4.94
657.02363	-6.16
657.03784	-3.26
657.05204	1.44
657.06625	23.29
657.08045	6.59
657.09465	4.54
657.10885	-6.71
657.12304	1.84
657.13723	0.19
657.15142	3.34
657.16561	-1.81
657.1798	-3.11
657.19398	-13.41
657.20816	-2.16
657.22234	-3.76
657.23651	-2.86
657.25068	0.94
657.26485	2.74
657.27902	-0.71
657.29319	-9.16
657.30735	-0.26
657.32151	0.99
657.33567	6.69
657.34982	21.39
657.36398	12.84
657.37813	15.44
657.39227	-0.41
657.40642	11.49
657.42056	18.09
657.4347	4.99
657.44884	4.94
657.46298	4.19
657.47711	13.59
657.49124	17.24
657.50537	-2.31
657.5195	-2.01
657.53362	-3.01
657.54774	1.49
657.56186	18.54
657.57598	25.74
657.59009	5.59
657.6042	9.09
657.61831	3.79
657.63242	4.49
657.64652	4.84
657.66062	6.79
657.67472	10.59
657.68882	8.09
657.70291	0.79
657.717	3.49
657.73109	3.74
657.74518	12.24
657.75926	0.54
657.77335	-5.76
657.78742	-1.16
657.8015	-2.56
657.81558	4.44
657.82965	8.04
657.84372	-3.16
657.85778	4.39
657.87185	-2.01
657.88591	4.19
657.89997	0.59
657.91403	12.69
657.92808	15.34
657.94214	10.99
657.95618	10.09
657.97023	1.64
657.98428	10.19
657.99832	34.64
658.01236	10.99
658.0264	-9.01
658.04043	-1.01
658.05447	2.74
658.0685	-11.96
658.08252	-8.16
658.09655	4.19
658.11057	12.19
658.12459	15.39
658.13861	21.84
658.15263	7.79
658.16664	20.79
658.18065	11.79
658.19466	-1.66
658.20866	-7.76
658.22267	-3.31
658.23667	9.14
658.25067	7.49
658.26466	5.89
658.27865	5.24
658.29265	2.39
658.30663	3.84
658.32062	0.74
658.3346	5.29
658.34858	5.34
658.36256	5.64
658.37654	3.54
658.39051	12.14
658.40448	13.79
658.41845	8.19
658.43242	5.79
658.44638	-5.31
658.46035	-4.81
658.4743	4.49
658.48826	10.34
658.50221	16.79
658.51617	6.39
658.53012	-4.76
658.54406	-2.51
658.55801	0.54
658.57195	-0.71
658.58589	14.89
658.59983	11.44
658.61376	-4.91
658.62769	1.24
658.64162	12.49
658.65555	10.74
658.66947	-0.11
658.6834	35.49
658.69731	94.34
658.71123	15.94
658.72515	12.74
658.73906	4.74
658.75297	9.64
658.76688	5.89
658.78078	9.74
658.79468	1.79
658.80858	-7.61
658.82248	-0.06
658.83638	5.79
658.85027	12.99
658.86416	5.49
658.87805	5.14
658.89193	-1.51
658.90582	0.74
658.9197	2.24
658.93357	3.79
658.94745	1.69
658.96132	-7.56
658.97519	5.94
658.98906	-7.71
659.00293	-5.76
659.01679	-4.21
659.03065	0.19
659.04451	10.94
659.05837	4.79
659.07222	1.14
659.08607	3.59
659.09992	13.84
659.11377	6.64
659.12761	-1.61
659.14145	5.79
659.15529	7.49
659.16913	10.09
659.18296	7.39
659.19679	-0.81
659.21062	3.94
659.22445	5.24
659.23827	27.69
659.25209	21.14
659.26591	11.24
659.27973	14.59
659.29354	3.69
659.30735	-0.11
659.32116	7.44
659.33497	6.49
659.34877	-6.86
659.36258	-2.31
659.37637	17.59
659.39017	13.49
659.40397	-5.36
659.41776	0.69
659.43155	4.39
659.44533	6.44
659.45912	17.24
659.4729	1.19
659.48668	6.14
659.50046	2.04
659.51423	1.29
659.52801	9.24
659.54178	17.39
659.55554	2.14
659.56931	5.54
659.58307	2.14
659.59683	10.49
659.61059	11.39
659.62434	21.29
659.6381	34.34
659.65185	4.89
659.6656	-1.06
659.67934	2.69
659.69308	1.74
659.70682	7.64
659.72056	5.64
659.7343	10.19
659.74803	0.84
659.76176	2.84
659.77549	3.14
659.78922	13.69
659.80294	-8.86
659.81666	-6.56
659.83038	7.59
659.84409	10.14
659.85781	0.29
659.87152	-0.96
659.88523	-0.66
659.89893	-1.06
659.91264	10.04
659.92634	21.04
659.94004	12.24
659.95373	6.59
659.96743	10.64
659.98112	14.49
659.99481	10.14
660.00849	1.34
660.02218	12.19
660.03586	15.49
660.04954	-3.11
660.06322	3.94
660.07689	19.29
660.09056	20.69
660.10423	-10.46
660.1179	2.69
660.13156	14.84
660.14522	7.29
660.15888	1.94
660.17254	1.89
660.1862	7.14
660.19985	4.39
660.2135	-3.11
660.22714	5.94
660.24079	1.54
660.25443	0.59
660.26807	6.89
660.28171	11.89
660.29534	9.59
660.30898	2.14
660.32261	-2.11
660.33623	-11.61
660.34986	-12.01
660.36348	8.84
660.3771	5.74
660.39072	22.89
660.40433	19.64
660.41795	15.39
660.43156	3.14
660.44517	7.49
660.45877	10.99
660.47237	-0.36
660.48598	0.14
660.49957	-2.06
660.51317	1.34
660.52676	3.19
660.54035	10.94
660.55394	17.49
660.56753	3.29
660.58111	9.39
660.59469	17.79
660.60827	-3.61
660.62185	3.84
660.63542	11.24
660.64899	11.54
660.66256	18.04
660.67613	15.44
660.68969	17.89
660.70325	13.39
660.71681	1.89
660.73037	-3.21
660.74392	6.79
660.75747	3.34
660.77102	7.09
660.78457	0.99
660.79811	8.44
660.81165	15.49
660.82519	6.54
660.83873	1.29
660.85226	9.29
660.86579	17.04
660.87932	7.69
660.89285	-1.26
660.90637	14.94
660.9199	12.89
660.93342	10.04
660.94693	14.94
660.96045	2.79
660.97396	7.14
660.98747	16.09
661.00098	2.64
661.01448	-2.21
661.02798	5.59
661.04148	8.34
661.05498	17.69
661.06848	3.59
661.08197	-1.36
661.09546	21.99
661.10895	44.74
661.12243	11.49
661.13591	12.04
661.14939	-2.76
661.16287	-1.91
661.17635	12.29
661.18982	12.74
661.20329	26.24
661.21676	22.14
661.23022	8.64
661.24369	6.09
661.25715	9.49
661.27061	5.19
661.28406	13.64
661.29752	-5.96
661.31097	0.54
661.32441	6.99
661.33786	-2.06
661.3513	-2.46
661.36474	3.19
661.37818	7.74
661.39162	7.04
661.40505	50.19
661.41848	115.59
661.43191	14.84
661.44534	4.09
661.45876	7.19
661.47218	11.34
661.4856	12.94
661.49902	12.74
661.51243	0.89
661.52585	15.39
661.53925	12.09
661.55266	7.39
661.56606	0.39
661.57947	3.59
661.59287	-5.01
661.60626	-0.71
661.61966	13.94
661.63305	8.14
661.64644	5.54
661.65983	5.24
661.67321	8.54
661.68659	4.94
661.69997	18.74
661.71335	11.74
661.72672	22.44
661.7401	46.09
661.75347	7.74
661.76683	12.84
661.7802	21.14
661.79356	18.44
661.80692	-0.16
661.82028	10.49
661.83363	7.64
661.84698	1.24
661.86033	10.79
661.87368	13.94
661.88703	14.24
661.90037	6.69
661.91371	3.49
661.92705	-0.46
661.94038	2.54
661.95372	7.29
661.96705	19.19
661.98038	27.04
661.9937	7.09
662.00702	1.54
662.02034	14.89
662.03366	11.69
662.04698	10.99
662.06029	3.59
662.0736	-3.81
662.08691	1.69
662.10022	2.99
662.11352	7.79
662.12682	9.89
662.14012	-9.21
662.15342	1.94
662.16671	13.74
662.18	0.49
662.19329	-0.16
662.20658	-2.46
662.21986	0.89
662.23314	2.54
662.24642	-3.16
662.2597	11.24
662.27297	4.44
662.28624	-2.46
662.29951	5.64
662.31278	-1.76
662.32604	-2.36
662.3393	3.54
662.35256	6.19
662.36582	4.44
662.37907	-2.56
662.39233	0.69
662.40558	7.09
662.41882	9.04
662.43207	12.44
662.44531	3.24
662.45855	-5.21
662.47179	-1.01
662.48502	3.04
662.49825	0.09
662.51148	10.44
662.52471	14.94
662.53794	5.29
662.55116	14.99
662.56438	4.39
662.5776	2.89
662.59081	11.49
662.60402	14.79
662.61723	9.74
662.63044	12.74
662.64365	4.39
662.65685	6.79
662.67005	18.04
662.68325	20.04
662.69644	1.44
662.70964	3.84
662.72283	9.09
662.73601	10.14
662.7492	10.44
662.76238	7.59
662.77556	6.19
662.78874	15.79
662.80192	14.29
662.81509	18.89
662.82826	12.39
662.84143	-2.51
662.8546	4.19
662.86776	5.89
662.88092	-3.01
662.89408	-4.91
662.90724	8.64
662.92039	25.44
662.93354	5.69
662.94669	-2.41
662.95984	5.79
662.97298	4.39
662.98612	-0.16
662.99926	-4.31
663.0124	5.79
663.02553	7.04
663.03866	7.59
663.05179	8.89
663.06492	10.74
663.07804	15.44
663.09116	14.84
663.10428	5.39
663.1174	0.79
663.13052	3.99
663.14363	5.34
663.15674	-1.76
663.16984	4.99
663.18295	13.34
663.19605	14.94
663.20915	14.99
663.22225	12.44
663.23534	14.64
663.24843	-2.76
663.26152	-4.16
663.27461	-0.11
663.2877	3.49
663.30078	5.14
663.31386	7.29
663.32694	7.39
663.34001	24.64
663.35308	16.24
663.36615	-1.11
663.37922	11.99
663.39229	20.19
663.40535	-5.61
663.41841	-4.11
663.43147	0.24
663.44452	7.24
663.45758	12.14
663.47063	10.24
663.48368	7.69
663.49672	6.24
663.50977	-5.81
663.52281	3.39
663.53584	1.64
663.54888	-4.31
663.56191	-3.11
663.57494	-9.61
663.58797	-8.11
663.601	0.54
663.61402	5.04
663.62704	13.34
663.64006	6.49
663.65308	7.89
663.66609	-3.61
663.6791	-5.26
663.69211	16.84
663.70512	22.89
663.71812	5.29
663.73112	-1.06
663.74412	-0.11
663.75712	12.24
663.77011	7.74
663.78311	5.64
663.79609	10.69
663.80908	8.84
663.82207	2.69
663.83505	-10.01
663.84803	0.49
663.861	4.34
663.87398	7.24
663.88695	4.24
663.89992	2.49
663.91289	5.44
663.92585	7.04
663.93881	0.14
663.95177	6.94
663.96473	26.94
663.97769	10.64
663.99064	-4.26
664.00359	2.14
664.01654	15.64
664.02948	12.59
664.04242	10.39
664.05536	7.69
664.0683	7.59
664.08124	11.74
664.09417	15.39
664.1071	14.54
664.12003	10.84
664.13295	1.49
664.14588	0.94
664.1588	2.39
664.17171	-0.26
664.18463	10.54
664.19754	4.14
664.21045	14.64
664.22336	7.99
664.23627	12.79
664.24917	7.24
664.26207	6.54
664.27497	1.69
664.28787	8.54
664.30076	16.54
664.31365	4.09
664.32654	5.79
664.33942	0.59
664.35231	3.69
664.36519	4.54
664.37807	4.39
664.39094	9.49
664.40382	15.79
664.41669	15.49
664.42956	12.74
664.44242	7.99
664.45529	5.29
664.46815	3.44
664.48101	7.19
664.49387	14.74
664.50672	-5.96
664.51957	0.64
664.53242	11.34
664.54527	7.29
664.55811	10.94
664.57095	6.49
664.58379	7.29
664.59663	-4.01
664.60946	6.64
664.6223	13.99
664.63513	11.69
664.64795	11.19
664.66078	7.39
664.6736	6.49
664.68642	2.44
664.69924	2.49
664.71205	8.19
664.72486	-2.96
664.73767	2.39
664.75048	12.34
664.76329	13.79
664.77609	5.44
664.78889	18.09
664.80169	11.79
664.81448	2.99
664.82728	4.19
664.84007	5.54
664.85285	-3.76
664.86564	5.24
664.87842	-3.76
664.8912	0.99
664.90398	16.89
664.91676	16.64
664.92953	3.14
664.9423	13.84
664.95507	16.19
664.96783	6.79
664.9806	10.99
664.99336	2.89
665.00612	7.64
665.01887	8.84
665.03163	11.74
665.04438	14.39
665.05713	24.04
665.06987	2.54
665.08262	-7.76
665.09536	1.79
665.1081	6.59
665.12083	5.69
665.13357	-0.36
665.1463	18.89
665.15903	19.24
665.17175	19.64
665.18448	2.64
665.1972	6.49
665.20992	4.69
665.22263	9.44
665.23535	28.49
665.24806	54.24
665.26077	8.94
665.27348	-0.01
665.28618	15.19
665.29888	12.59
665.31158	1.84
665.32428	19.49
665.33697	14.24
665.34967	7.44
665.36236	3.79
665.37504	5.69
665.38773	5.04
665.40041	16.44
665.41309	10.29
665.42577	8.34
665.43844	1.69
665.45111	1.74
665.46378	0.99
665.47645	7.59
665.48912	13.04
665.50178	10.59
665.51444	2.49
665.5271	10.39
665.53975	0.99
665.55241	0.29
665.56506	4.39
665.5777	1.99
665.59035	9.79
665.60299	11.29
665.61563	12.79
665.62827	12.99
665.64091	8.44
665.65354	1.39
665.66617	3.59
665.6788	8.29
665.69142	15.44
665.70405	13.29
665.71667	0.19
665.72929	0.64
665.7419	7.14
665.75452	-5.16
665.76713	2.94
665.77974	2.99
665.79234	18.04
665.80495	12.04
665.81755	10.74
665.83015	-6.21
665.84274	6.94
665.85534	4.14
665.86793	2.94
665.88052	7.79
665.8931	12.29
665.90569	2.49
665.91827	1.44
665.93085	-5.51
665.94343	10.74
665.956	13.09
665.96857	-2.46
665.98114	-1.46
665.99371	-14.26
666.00627	-12.81
666.01883	-3.36
666.03139	13.59
666.04395	9.69
666.05651	15.39
666.06906	20.39
666.08161	9.59
666.09415	6.59
666.1067	7.04
666.11924	7.14
666.13178	2.84
666.14432	4.64
666.15685	2.19
666.16939	0.84
666.18192	3.09
666.19444	5.59
666.20697	10.74
666.21949	16.19
666.23201	13.14
666.24453	6.29
666.25705	15.64
666.26956	5.09
666.28207	8.24
666.29458	4.14
666.30708	1.79
666.31959	3.39
666.33209	12.54
666.34458	11.09
666.35708	11.54
666.36957	17.84
666.38206	13.49
666.39455	12.29
666.40704	2.69
666.41952	10.39
666.432	9.39
666.44448	8.79
666.45696	0.99
666.46943	3.89
666.4819	8.59
666.49437	10.89
666.50684	11.94
666.5193	-0.36
666.53176	-5.81
666.54422	-0.81
666.55668	9.14
666.56913	-0.71
666.58158	8.29
666.59403	14.04
666.60648	10.99
666.61892	7.34
666.63136	13.44
666.6438	11.04
666.65624	8.09
666.66867	14.04
666.68111	13.39
666.69354	15.59
666.70596	12.34
666.71839	2.49
666.73081	8.34
666.74323	1.94
666.75565	14.69
666.76806	12.19
666.78047	0.99
666.79288	5.04
666.80529	8.59
666.81769	3.54
666.8301	6.59
666.8425	8.94
666.85489	0.79
666.86729	8.59
666.87968	-3.41
666.89207	2.34
666.90446	12.24
666.91684	14.79
666.92923	6.44
666.94161	19.99
666.95399	43.29
666.96636	14.64
666.97873	10.84
666.9911	-2.46
667.00347	13.34
667.01584	25.29
667.0282	23.89
667.04056	5.59
667.05292	10.04
667.06528	13.44
667.07763	4.39
667.08998	10.64
667.10233	17.89
667.11467	6.94
667.12702	5.04
667.13936	10.34
667.1517	28.44
667.16403	20.99
667.17637	25.84
667.1887	26.04
667.20103	37.09
667.21335	75.34
667.22568	213.84
667.238	703.79
667.25032	2159.74
667.26263	4424.24
667.27495	5157.79
667.28726	3666.19
667.29957	2430.39
667.31188	1950.19
667.32418	1620.34
667.33648	1339.54
667.34878	1095.54
667.36108	827.14
667.37337	568.59
667.38566	373.09
667.39795	248.79
667.41024	159.84
667.42252	122.74
667.43481	85.29
667.44709	54.94
667.45936	46.94
667.47164	37.79
667.48391	27.99
667.49618	11.99
667.50845	8.54
667.52071	20.89
667.53297	19.19
667.54523	19.29
667.55749	12.79
667.56975	18.49
667.582	10.94
667.59425	13.74
667.6065	27.39
667.61874	11.99
667.63099	19.54
667.64323	18.79
667.65546	1.44
667.6677	6.74
667.67993	9.14
667.69216	10.94
667.70439	4.44
667.71662	4.04
667.72884	11.99
667.74106	11.69
667.75328	8.54
667.76549	9.64
667.77771	7.34
667.78992	10.74
667.80213	11.94
667.81433	0.59
667.82654	5.64
667.83874	12.39
667.85094	-4.26
667.86313	-6.01
667.87533	-2.01
667.88752	1.19
667.89971	3.34
667.91189	3.29
667.92408	-2.36
667.93626	3.69
667.94844	11.49
667.96061	16.29
667.97279	1.99
667.98496	3.34
667.99713	-0.06
668.0093	4.79
668.02146	13.69
668.03362	14.34
668.04578	5.34
668.05794	-6.86
668.07009	0.79
668.08224	11.19
668.09439	25.89
668.10654	17.74
668.11868	14.79
668.13083	6.04
668.14297	4.29
668.1551	9.24
668.16724	12.34
668.17937	9.44
668.1915	-1.26
668.20363	5.19
668.21575	4.09
668.22788	3.34
668.24	10.19
668.25211	16.84
668.26423	20.19
668.27634	3.34
668.28845	5.24
668.30056	1.89
668.31266	0.94
668.32477	6.59
668.33687	-0.66
668.34897	-3.16
668.36106	9.49
668.37315	16.54
668.38524	6.54
668.39733	6.24
668.40942	-5.46
668.4215	4.34
668.43358	5.29
668.44566	6.49
668.45774	9.34
668.46981	-0.16
668.48188	4.29
668.49395	9.74
668.50602	14.79
668.51808	8.19
668.53014	2.89
668.5422	2.49
668.55425	6.44
668.56631	9.99
668.57836	0.24
668.59041	8.49
668.60246	-0.01
668.6145	-2.56
668.62654	-0.16
668.63858	2.64
668.65062	7.24
668.66265	13.24
668.67468	-1.41
668.68671	3.69
668.69874	20.39
668.71076	9.34
668.72278	2.04
668.7348	6.39
668.74682	2.59
668.75883	1.99
668.77085	-3.86
668.78286	-10.31
668.79486	-2.51
668.80687	4.04
668.81887	0.34
668.83087	8.09
668.84287	-2.01
668.85486	10.74
668.86685	-8.36
668.87884	-5.76
668.89083	6.99
668.90282	11.29
668.9148	2.79
668.92678	-1.01
668.93876	6.49
668.95073	6.39
668.9627	2.94
668.97468	4.69
668.98664	13.09
668.99861	13.79
669.01057	11.44
669.02253	6.19
669.03449	13.09
669.04645	2.14
669.0584	5.99
669.07035	5.94
669.0823	1.79
669.09424	-6.46
669.10619	-5.31
669.11813	9.19
669.13007	13.34
669.142	16.24
669.15393	16.99
669.16587	4.74
669.17779	-0.71
669.18972	-4.31
669.20164	-7.91
669.21356	3.59
669.22548	6.29
669.2374	4.94
669.24931	2.24
669.26123	-1.81
669.27313	6.49
669.28504	10.49
669.29694	1.79
669.30885	4.94
669.32074	8.04
669.33264	13.59
669.34454	2.09
669.35643	-2.81
669.36832	-4.81
669.3802	2.09
669.39209	-6.16
669.40397	-2.06
669.41585	0.79
669.42773	-2.31
669.4396	-11.56
669.45147	-10.26
669.46334	-2.71
669.47521	5.49
669.48707	-3.71
669.49894	-5.81
669.5108	4.24
669.52265	1.64
669.53451	7.14
669.54636	-3.71
669.55821	7.49
669.57006	1.39
669.5819	-8.66
669.59375	-4.91
669.60559	3.44
669.61742	0.14
669.62926	-3.31
669.64109	-1.36
669.65292	7.29
669.66475	6.79
669.67658	0.49
669.6884	-1.31
669.70022	2.19
669.71204	15.04
669.72385	5.14
669.73567	2.59
669.74748	0.39
669.75928	0.79
669.77109	3.59
669.78289	2.94
669.79469	0.69
669.80649	-0.31
669.81829	-4.91
669.83008	9.54
669.84187	4.54
669.85366	-1.16
669.86545	3.44
669.87723	11.64
669.88901	13.49
669.90079	10.39
669.91257	3.94
669.92434	15.89
669.93611	25.39
669.94788	15.84
669.95965	8.89
669.97141	-2.51
669.98317	-0.26
669.99493	6.79
670.00669	6.04
670.01844	8.04
670.0302	12.99
670.04194	4.14
670.05369	14.19
670.06544	-1.86
670.07718	5.99
670.08892	6.39
670.10065	3.24
670.11239	5.44
670.12412	9.44
670.13585	6.34
670.14758	-2.81
670.1593	-5.31
670.17103	19.74
670.18275	50.94
670.19446	4.74
670.20618	10.74
670.21789	5.99
670.2296	7.24
670.24131	-1.86
670.25301	12.79
670.26472	17.74
670.27642	13.54
670.28811	6.69
670.29981	6.64
670.3115	1.44
670.32319	-1.16
670.33488	-5.16
670.34656	-3.91
670.35825	10.09
670.36993	8.39
670.38161	1.54
670.39328	-3.76
670.40496	2.14
670.41663	0.04
670.42829	8.29
670.43996	5.04
670.45162	5.94
670.46328	-1.26
670.47494	-4.56
670.4866	1.49
670.49825	9.69
670.5099	7.44
670.52155	8.54
670.5332	14.59
670.54484	-1.46
670.55648	-5.61
670.56812	11.04
670.57976	1.44
670.59139	-2.31
670.60302	-2.11
670.61465	7.89
670.62628	1.64
670.6379	-0.61
670.64952	8.59
670.66114	-1.91
670.67276	-11.51
670.68438	-3.76
670.69599	8.64
670.7076	3.09
670.7192	4.84
670.73081	15.54
670.74241	15.59
670.75401	7.74
670.76561	8.19
670.7772	8.14
670.78879	0.89
670.80038	-2.81
670.81197	-1.01
670.82355	2.09
670.83514	8.09
670.84672	-3.86
670.85829	-5.81
670.86987	-5.91
670.88144	0.64
670.89301	-6.36
670.90458	-8.91
670.91614	-6.91
670.92771	3.59
670.93927	6.04
670.95083	10.49
670.96238	6.04
670.97393	-0.01
670.98548	-0.46
670.99703	-7.76
671.00858	-5.86
671.02012	-1.41
671.03166	-8.86
671.0432	-6.71
671.05473	2.09
671.06627	2.79
671.0778	0.59
671.08933	-0.26
671.10085	4.99
671.11238	7.89
671.1239	4.04
671.13542	10.69
671.14693	3.49
671.15845	-1.21
671.16996	12.14
671.18147	14.39
671.19297	7.49
671.20448	16.89
671.21598	1.34
671.22748	-0.86
671.23897	1.19
671.25047	0.19
671.26196	1.44
671.27345	-3.06
671.28493	-1.86
671.29642	-0.86
671.3079	0.24
671.31938	-3.26
671.33085	-4.31
671.34233	7.09
671.3538	8.99
671.36527	4.99
671.37674	-7.46
671.3882	-6.76
671.39966	-6.86
671.41112	-4.51
671.42258	-5.71
671.43404	7.59
671.44549	13.84
671.45694	1.59
671.46838	7.14
671.47983	9.04
671.49127	1.49
671.50271	13.09
671.51415	3.69
671.52558	3.29
671.53702	8.34
671.54845	16.24
671.55987	7.14
671.5713	3.89
671.58272	1.89
671.59414	10.99
671.60556	27.64
671.61698	18.79
671.62839	3.44
671.6398	4.99
671.65121	5.64
671.66261	-0.16
671.67402	-4.76
671.68542	-2.26
671.69681	-8.41
671.70821	-7.41
671.7196	1.79
671.73099	-2.61
671.74238	6.39
671.75377	6.39
671.76515	1.54
671.77653	0.49
671.78791	3.34
671.79929	14.54
671.81066	8.94
671.82203	12.14
671.8334	-1.56
671.84477	6.24
671.85613	9.84
671.86749	7.74
671.87885	16.39
671.89021	28.44
671.90156	7.09
671.91291	-4.66
671.92426	-6.86
671.93561	-0.26
671.94695	2.39
671.9583	0.34
671.96963	10.89
671.98097	6.89
671.99231	1.79
672.00364	-10.71
672.01497	0.69
672.02629	3.39
672.03762	-1.51
672.04894	-2.71
672.06026	-5.16
672.07158	-5.61
672.08289	-4.46
672.0942	0.94
672.10551	19.54
672.11682	32.14
672.12813	11.94
672.13943	2.94
672.15073	-3.11
672.16203	-1.56
672.17332	-0.51
672.18461	-2.36
672.1959	10.69
672.20719	14.74
672.21848	17.84
672.22976	16.24
672.24104	14.24
672.25232	4.89
672.26359	2.79
672.27487	3.74
672.28614	12.94
672.29741	11.84
672.30867	4.04
672.31993	1.99
672.33119	3.99
672.34245	1.39
672.35371	-9.16
672.36496	-3.96
672.37621	4.79
672.38746	-4.76
672.39871	0.49
672.40995	0.74
672.42119	9.69
672.43243	17.84
672.44367	13.54
672.4549	-1.06
672.46613	8.14
672.47736	7.54
672.48859	13.59
672.49981	5.79
672.51103	-0.96
672.52225	5.44
672.53347	4.34
672.54468	3.84
672.55589	12.74
672.5671	2.94
672.57831	5.79
672.58951	14.34
672.60072	6.94
672.61191	-1.21
672.62311	4.14
672.63431	2.94
672.6455	5.89
672.65669	0.99
672.66787	-2.51
672.67906	-4.51
672.69024	-5.86
672.70142	-2.11
672.7126	3.99
672.72377	-2.41
672.73494	-4.61
672.74611	2.99
672.75728	-1.11
672.76845	5.49
672.77961	6.64
672.79077	2.29
672.80193	-3.61
672.81308	7.09
672.82423	9.29
672.83539	13.24
672.84653	4.74
672.85768	2.84
672.86882	3.29
672.87996	9.04
672.8911	-0.06
672.90223	9.14
672.91337	-1.51
672.9245	-5.51
672.93563	-2.61
672.94675	9.94
672.95788	14.34
672.969	-2.61
672.98011	1.69
672.99123	14.39
673.00234	8.09
673.01345	3.64
673.02456	-4.01
673.03567	-0.11
673.04677	8.14
673.05787	-1.11
673.06897	-0.01
673.08007	-0.26
673.09116	-0.76
673.10225	-9.36
673.11334	1.39
673.12443	14.39
673.13551	14.79
673.14659	7.94
673.15767	3.19
673.16875	2.94
673.17982	2.19
673.1909	-5.16
673.20196	-0.91
673.21303	-2.16
673.2241	4.24
673.23516	13.74
673.24622	3.24
673.25727	8.39
673.26833	7.14
673.27938	9.04
673.29043	8.54
673.30148	15.49
673.31252	7.09
673.32356	3.89
673.3346	-1.26
673.34564	1.79
673.35668	-1.91
673.36771	-7.56
673.37874	3.94
673.38977	9.09
673.40079	15.79
673.41181	5.84
673.42283	9.89
673.43385	3.09
673.44487	8.04
673.45588	0.29
673.46689	-6.41
673.4779	9.14
673.4889	13.59
673.4999	2.64
673.51091	2.79
673.5219	9.34
673.5329	23.29
673.54389	12.14
673.55488	-0.41
673.56587	10.19
673.57686	9.64
673.58784	5.94
673.59882	13.09
673.6098	3.34
673.62077	13.24
673.63175	35.29
673.64272	14.69
673.65369	-2.21
673.66465	0.94
673.67562	0.84
673.68658	6.74
673.69754	-2.36
673.70849	10.39
673.71945	16.04
673.7304	18.29
673.74135	29.69
673.75229	25.09
673.76324	28.29
673.77418	5.44
673.78512	9.79
673.79605	6.99
673.80699	10.29
673.81792	5.54
673.82885	8.54
673.83978	16.54
673.8507	12.34
673.86162	3.34
673.87254	-0.86
673.88346	11.24
673.89437	8.24
673.90529	12.14
673.9162	17.24
673.9271	8.39
673.93801	11.64
673.94891	-2.06
673.95981	0.44
673.97071	1.04
673.9816	5.34
673.99249	4.49
674.00338	8.69
674.01427	2.04
674.02516	-0.06
674.03604	-6.61
674.04692	-1.11
674.0578	3.24
674.06867	9.14
674.07954	10.69
674.09042	23.94
674.10128	-0.11
674.11215	-10.26
674.12301	3.44
674.13387	5.14
674.14473	-2.66
674.15559	-1.21
674.16644	2.69
674.17729	-2.66
674.18814	-1.76
674.19898	2.49
674.20983	-2.16
674.22067	-0.26
674.23151	-2.21
674.24234	-2.26
674.25318	2.34
674.26401	17.89
674.27483	17.99
674.28566	-1.21
674.29648	-3.36
674.30731	-1.41
674.31812	2.09
674.32894	2.74
674.33975	9.19
674.35057	4.99
674.36137	1.59
674.37218	6.49
674.38299	-8.86
674.39379	-6.86
674.40459	13.54
674.41538	10.34
674.42618	3.99
674.43697	1.79
674.44776	-0.96
674.45854	5.69
674.46933	10.34
674.48011	5.34
674.49089	-3.46
674.50167	-0.56
674.51244	-2.46
674.52321	-7.41
674.53398	-13.11
674.54475	-7.61
674.55552	5.54
674.56628	1.24
674.57704	1.39
674.5878	5.24
674.59855	0.04
674.6093	8.04
674.62005	10.14
674.6308	6.39
674.64155	3.09
674.65229	1.49
674.66303	3.19
674.67377	12.54
674.6845	14.14
674.69523	22.09
674.70596	14.74
674.71669	4.19
674.72742	-4.01
674.73814	-6.86
674.74886	-0.91
674.75958	-1.46
674.77029	6.44
674.78101	-2.81
674.79172	9.14
674.80243	11.49
674.81313	10.39
674.82384	16.74
674.83454	3.64
674.84524	-2.56
674.85593	1.84
674.86663	7.59
674.87732	-2.31
674.888	1.39
674.89869	3.24
674.90937	4.24
674.92006	9.44
674.93073	9.54
674.94141	5.84
674.95208	6.59
674.96276	16.79
674.97343	12.69
674.98409	15.79
674.99476	17.14
675.00542	-1.41
675.01608	2.09
675.02673	-0.26
675.03739	0.04
675.04804	4.89
675.05869	16.29
675.06934	16.09
675.07998	16.89
675.09062	-7.51
675.10126	-6.76
675.1119	0.14
675.12253	14.69
675.13317	13.44
675.1438	9.39
675.15442	4.24
675.16505	-0.71
675.17567	3.99
675.18629	15.39
675.19691	13.99
675.20752	9.44
675.21813	7.34
675.22874	7.09
675.23935	10.74
675.24996	7.64
675.26056	14.09
675.27116	9.74
675.28176	6.79
675.29235	4.59
675.30295	5.79
675.31354	3.39
675.32412	-2.01
675.33471	-8.91
675.34529	-2.51
675.35587	-5.51
675.36645	-9.81
675.37703	-5.46
675.3876	-0.31
675.39817	1.79
675.40874	4.09
675.41931	4.89
675.42987	14.09
675.44043	9.54
675.45099	7.99
675.46154	12.84
675.4721	8.99
675.48265	13.39
675.4932	18.09
675.50374	9.54
675.51429	1.44
675.52483	2.44
675.53537	-4.01
675.5459	2.29
675.55644	9.44
675.56697	5.44
675.5775	6.09
675.58803	0.64
675.59855	3.64
675.60907	2.44
675.61959	-4.11
675.63011	0.04
675.64062	-3.96
675.65113	-3.16
675.66164	10.39
675.67215	1.44
675.68265	5.44
675.69316	4.34
675.70366	2.29
675.71415	16.29
675.72465	21.89
675.73514	12.99
675.74563	15.94
675.75612	2.24
675.7666	0.04
675.77708	2.09
675.78756	4.59
675.79804	0.34
675.80852	12.69
675.81899	22.04
675.82946	8.79
675.83993	5.64
675.85039	5.79
675.86085	11.79
675.87131	17.84
675.88177	12.54
675.89223	12.09
675.90268	13.59
675.91313	5.69
675.92358	5.59
675.93402	0.59
675.94447	2.84
675.95491	11.74
675.96535	1.49
675.97578	12.99
675.98622	19.54
675.99665	-2.46
676.00707	7.99
676.0175	10.94
676.02792	7.24
676.03835	4.64
676.04876	7.34
676.05918	3.84
676.06959	9.19
676.08	20.19
676.09041	11.59
676.10082	-1.41
676.11122	6.79
676.12162	64.59
676.13202	128.14
676.14242	20.44
676.15281	1.99
676.16321	-3.56
676.17359	-2.21
676.18398	-9.56
676.19437	5.34
676.20475	-0.81
676.21513	-2.21
676.2255	5.99
676.23588	14.54
676.24625	12.84
676.25662	0.79
676.26699	-4.81
676.27735	2.04
676.28771	17.89
676.29807	6.54
676.30843	7.59
676.31878	0.84
676.32914	7.34
676.33949	9.09
676.34983	18.09
676.36018	6.84
676.37052	-1.46
676.38086	-3.36
676.3912	-1.01
676.40153	4.89
676.41187	12.84
676.4222	4.94
676.43252	8.54
676.44285	19.59
676.45317	10.89
676.46349	-1.56
676.47381	4.99
676.48413	11.19
676.49444	7.79
676.50475	12.14
676.51506	9.59
676.52536	19.14
676.53567	8.29
676.54597	8.69
676.55626	9.09
676.56656	4.19
676.57685	0.94
676.58714	6.64
676.59743	8.84
676.60772	6.39
676.618	-0.36
676.62828	1.09
676.63856	-8.36
676.64884	-6.61
676.65911	-3.36
676.66938	-5.71
676.67965	3.59
676.68992	14.84
676.70018	13.89
676.71044	7.19
676.7207	25.24
676.73096	17.89
676.74121	10.49
676.75146	13.94
676.76171	16.79
676.77196	4.49
676.7822	-3.41
676.79245	1.64
676.80269	9.49
676.81292	-6.51
676.82316	-5.66
676.83339	8.34
676.84362	22.99
676.85385	4.49
676.86407	6.39
676.87429	4.29
676.88451	7.29
676.89473	8.24
676.90494	-12.91
676.91516	-6.56
676.92537	-2.16
676.93557	9.19
676.94578	6.49
676.95598	-2.31
676.96618	-3.51
676.97638	-0.76
676.98657	1.34
676.99677	-1.21
677.00696	8.09
677.01714	19.59
677.02733	11.59
677.03751	5.84
677.04769	2.69
677.05787	3.49
677.06805	4.99
677.07822	1.29
677.08839	8.59
677.09856	1.34
677.10872	2.59
677.11889	5.44
677.12905	10.74
677.13921	11.44
677.14936	1.09
677.15951	-1.46
677.16967	3.29
677.17981	9.09
677.18996	13.34
677.2001	-1.71
677.21025	-4.86
677.22038	3.14
677.23052	3.69
677.24065	1.44
677.25078	5.64
677.26091	12.24
677.27104	7.09
677.28116	-1.31
677.29129	3.79
677.3014	1.94
677.31152	20.84
677.32164	58.54
677.33175	4.59
677.34186	1.39
677.35196	6.99
677.36207	9.34
677.37217	10.54
677.38227	11.44
677.39236	10.74
677.40246	1.39
677.41255	-6.36
677.42264	-1.36
677.43273	6.84
677.44281	7.24
677.45289	10.14
677.46297	-3.21
677.47305	-4.41
677.48313	-4.46
677.4932	1.99
677.50327	1.64
677.51334	4.19
677.5234	3.34
677.53346	11.89
677.54352	9.14
677.55358	6.39
677.56364	8.24
677.57369	20.44
677.58374	10.94
677.59379	-2.31
677.60383	-2.56
677.61388	4.14
677.62392	4.74
677.63395	7.64
677.64399	13.29
677.65402	15.14
677.66405	5.34
677.67408	-5.06
677.68411	2.69
677.69413	8.54
677.70415	9.94
677.71417	10.29
677.72419	-2.46
677.7342	-0.01
677.74421	-5.46
677.75422	-3.11
677.76422	-1.76
677.77423	7.64
677.78423	13.09
677.79423	4.84
677.80422	10.94
677.81422	2.94
677.82421	-2.51
677.8342	1.44
677.84418	-2.86
677.85417	4.04
677.86415	14.04
677.87413	6.94
677.88411	-3.06
677.89408	9.19
677.90405	8.49
677.91402	9.44
677.92399	9.94
677.93395	20.74
677.94391	13.49
677.95387	3.54
677.96383	-0.36
677.97378	4.94
677.98374	4.14
677.99369	5.19
678.00363	15.14
678.01358	4.79
678.02352	2.84
678.03346	6.64
678.0434	1.24
678.05333	0.34
678.06326	7.34
678.07319	4.94
678.08312	2.39
678.09305	15.84
678.10297	4.94
678.11289	-3.31
678.12281	4.69
678.13272	3.34
678.14264	1.99
678.15255	5.59
678.16245	5.59
678.17236	-1.51
678.18226	0.49
678.19216	2.34
678.20206	-3.81
678.21196	-2.41
678.22185	11.74
678.23174	12.79
678.24163	9.04
678.25151	6.39
678.2614	21.09
678.27128	24.64
678.28116	10.04
678.29103	11.94
678.30091	4.49
678.31078	-4.71
678.32065	-3.56
678.33051	2.89
678.34037	1.19
678.35024	-8.71
678.36009	-4.06
678.36995	1.74
678.37981	4.64
678.38966	-9.06
678.39951	-1.76
678.40935	1.54
678.4192	-0.21
678.42904	-5.41
678.43888	2.54
678.44871	5.29
678.45855	9.39
678.46838	14.94
678.47821	-0.16
678.48804	3.84
678.49786	22.64
678.50768	23.89
678.5175	9.79
678.52732	14.24
678.53713	12.29
678.54694	5.69
678.55675	-2.81
678.56656	-4.61
678.57637	-5.01
678.58617	-1.86
678.59597	14.39
678.60577	6.84
678.61556	-6.51
678.62535	4.29
678.63514	19.94
678.64493	10.39
678.65472	1.39
678.6645	13.69
678.67428	9.94
678.68406	8.04
678.69383	3.24
678.7036	0.64
678.71337	7.49
678.72314	10.04
678.73291	8.39
678.74267	2.44
678.75243	0.49
678.76219	3.94
678.77195	8.74
678.7817	0.64
678.79145	1.34
678.8012	4.59
678.81094	-2.81
678.82069	-2.21
678.83043	36.04
678.84017	67.99
678.8499	2.79
678.85964	1.89
678.86937	8.39
678.87909	10.59
678.88882	7.74
678.89854	2.79
678.90827	1.74
678.91798	-1.01
678.9277	2.84
678.93742	-4.06
678.94713	-2.31
678.95684	-0.21
678.96654	6.64
678.97625	6.64
678.98595	7.34
678.99565	-2.16
679.00534	-7.61
679.01504	-4.06
679.02473	-4.51
679.03442	-3.61
679.04411	10.89
679.05379	3.94
679.06347	-7.01
679.07315	-2.11
679.08283	6.44
679.0925	3.64
679.10218	10.49
679.11185	-0.96
679.12151	0.09
679.13118	7.39
679.14084	-2.36
679.1505	-0.71
679.16016	-0.56
679.16981	-6.01
679.17946	9.49
679.18911	11.99
679.19876	-3.86
679.20841	9.99
679.21805	13.09
679.22769	6.94
679.23733	7.49
679.24696	16.19
679.2566	9.14
679.26623	4.49
679.27585	8.54
679.28548	-3.31
679.2951	8.79
679.30472	-0.46
679.31434	-4.91
679.32396	-1.06
679.33357	-2.26
679.34318	15.64
679.35279	27.89
679.3624	2.44
679.372	3.59
679.3816	9.09
679.3912	-1.31
679.40079	22.39
679.41039	11.69
679.41998	4.59
679.42957	2.99
679.43915	-2.91
679.44874	3.74
679.45832	17.99
679.4679	8.39
679.47747	-4.06
679.48705	-4.36
679.49662	7.79
679.50619	9.54
679.51575	1.19
679.52532	3.69
679.53488	13.39
679.54444	3.09
679.554	4.79
679.56355	4.44
679.5731	11.24
679.58265	4.14
679.5922	-1.26
679.60174	7.99
679.61129	11.99
679.62083	3.79
679.63036	-8.06
679.6399	1.24
679.64943	13.89
679.65896	9.59
679.66849	-0.56
679.67801	6.34
679.68753	11.89
679.69705	18.64
679.70657	24.94
679.71609	14.14
679.7256	13.89
679.73511	6.49
679.74462	-0.91
679.75412	0.04
679.76362	11.29
679.77312	15.24
679.78262	4.89
679.79212	1.74
679.80161	8.24
679.8111	1.79
679.82059	1.69
679.83007	12.34
679.83956	11.14
679.84904	6.89
679.85852	10.04
679.86799	1.04
679.87747	5.54
679.88694	0.79
679.8964	-2.26
679.90587	-2.91
679.91533	11.09
679.92479	5.59
679.93425	2.44
679.94371	13.24
679.95316	13.14
679.96261	9.24
679.97206	5.24
679.98151	2.69
679.99095	-0.76
680.00039	-2.06
680.00983	-2.16
680.01927	6.94
680.0287	-1.11
680.03814	16.79
680.04756	0.84
680.05699	-2.51
680.06641	6.24
680.07584	-0.56
680.08526	-6.21
680.09467	0.64
680.10409	-3.91
680.1135	-8.46
680.12291	-0.41
680.13232	7.39
680.14172	18.64
680.15112	8.84
680.16052	-1.66
680.16992	2.44
680.17931	10.89
680.18871	9.29
680.1981	-5.31
680.20748	-3.06
680.21687	-0.61
