Data from HR4C25001_14-21-45-263.txt Node
Date: Mon Jun 15 14:21:45 CDT 2026
User: jam28248
Spectrometer: HR4C2500
Trigger mode: 4
Integration Time (sec): 7.500000E-2
Scans to average: 20
Electric dark correction enabled: true
Nonlinearity correction enabled: false
Boxcar width: 0
XAxis mode: Wavelengths
Number of Pixels in Spectrum: 3648
>>>>>Begin Spectral Data<<<<<
629.66646	-20.26
629.6848	-20.26
629.70313	-20.26
629.72147	-47.61
629.7398	-36.36
629.75812	0.74
629.77645	0.79
629.79477	7.79
629.81309	-3.51
629.83141	-9.01
629.84972	1.29
629.86803	1.69
629.88634	11.59
629.90465	-9.16
629.92295	-6.31
629.94126	-3.01
629.95956	3.29
629.97785	3.79
629.99615	0.49
630.01444	20.39
630.03273	12.24
630.05102	12.49
630.0693	7.44
630.08759	15.89
630.10587	7.39
630.12415	2.89
630.14242	6.24
630.16069	-7.36
630.17896	-1.86
630.19723	6.54
630.2155	22.04
630.23376	69.79
630.25202	28.79
630.27028	22.59
630.28854	14.94
630.30679	8.19
630.32504	5.04
630.34329	7.99
630.36153	14.14
630.37978	26.49
630.39802	14.34
630.41626	6.79
630.43449	-0.91
630.45273	5.99
630.47096	11.94
630.48919	9.59
630.50741	13.44
630.52564	7.59
630.54386	13.74
630.56208	21.94
630.58029	12.09
630.59851	6.99
630.61672	8.64
630.63493	17.34
630.65313	9.19
630.67134	9.09
630.68954	4.54
630.70774	12.04
630.72594	17.74
630.74413	4.69
630.76232	-2.06
630.78051	0.49
630.7987	7.29
630.81688	15.29
630.83507	25.79
630.85325	15.44
630.87142	5.49
630.8896	7.49
630.90777	1.19
630.92594	-4.61
630.94411	14.99
630.96227	26.29
630.98043	40.19
630.99859	12.54
631.01675	7.29
631.03491	0.99
631.05306	0.89
631.07121	12.04
631.08936	9.89
631.1075	0.09
631.12564	8.34
631.14379	11.49
631.16192	18.64
631.18006	13.39
631.19819	10.99
631.21632	8.39
631.23445	-6.16
631.25258	3.79
631.2707	10.74
631.28882	11.79
631.30694	11.74
631.32505	5.69
631.34317	12.34
631.36128	10.24
631.37939	13.94
631.39749	10.34
631.4156	9.59
631.4337	1.24
631.4518	4.79
631.46989	-7.91
631.48799	-0.16
631.50608	0.09
631.52417	-2.41
631.54225	5.49
631.56034	5.14
631.57842	9.34
631.5965	3.39
631.61457	-11.16
631.63265	-4.21
631.65072	6.44
631.66879	-3.96
631.68685	11.84
631.70492	21.69
631.72298	17.79
631.74104	6.29
631.7591	4.09
631.77715	6.54
631.7952	12.89
631.81325	17.09
631.8313	2.99
631.84934	17.74
631.86739	18.44
631.88543	8.49
631.90346	11.49
631.9215	2.44
631.93953	10.19
631.95756	6.59
631.97559	8.94
631.99361	0.24
632.01163	-2.66
632.02965	10.29
632.04767	18.59
632.06569	16.74
632.0837	9.64
632.10171	3.04
632.11972	-2.66
632.13772	7.89
632.15573	17.59
632.17373	1.29
632.19172	-3.21
632.20972	2.09
632.22771	-1.91
632.2457	3.54
632.26369	7.29
632.28168	14.79
632.29966	3.44
632.31764	9.74
632.33562	7.59
632.35359	8.89
632.37157	10.04
632.38954	9.34
632.40751	1.59
632.42547	-4.81
632.44344	15.34
632.4614	11.84
632.47936	4.14
632.49731	4.14
632.51527	4.44
632.53322	11.69
632.55117	6.54
632.56911	4.59
632.58706	2.29
632.605	4.44
632.62294	7.79
632.64087	11.39
632.65881	-7.66
632.67674	4.79
632.69467	0.84
632.7126	2.94
632.73052	13.94
632.74844	7.99
632.76636	10.59
632.78428	15.94
632.80219	22.59
632.8201	28.69
632.83801	7.29
632.85592	5.99
632.87383	18.59
632.89173	6.54
632.90963	1.24
632.92753	9.19
632.94542	12.69
632.96331	13.29
632.9812	9.94
632.99909	6.54
633.01697	1.34
633.03486	6.64
633.05274	0.79
633.07061	6.84
633.08849	4.09
633.10636	10.24
633.12423	16.89
633.1421	10.29
633.15997	20.24
633.17783	8.94
633.19569	13.94
633.21355	18.19
633.2314	19.99
633.24926	-0.21
633.26711	-0.41
633.28495	8.74
633.3028	-1.11
633.32064	3.79
633.33848	11.09
633.35632	19.84
633.37416	16.99
633.39199	6.79
633.40982	-0.71
633.42765	6.14
633.44548	6.79
633.4633	-3.76
633.48112	-4.31
633.49894	-7.16
633.51676	2.74
633.53457	2.89
633.55238	8.44
633.57019	-0.66
633.588	-5.36
633.6058	-4.16
633.6236	6.64
633.6414	8.34
633.6592	2.54
633.67699	-5.66
633.69478	0.29
633.71257	15.39
633.73036	13.24
633.74815	-2.01
633.76593	1.19
633.78371	6.54
633.80148	6.89
633.81926	1.54
633.83703	0.39
633.8548	-11.96
633.87257	-9.41
633.89033	0.29
633.90809	9.14
633.92585	5.54
633.94361	1.24
633.96137	1.34
633.97912	12.14
633.99687	-8.46
634.01462	5.54
634.03236	19.34
634.0501	19.24
634.06784	-1.51
634.08558	13.84
634.10332	12.69
634.12105	4.29
634.13878	16.14
634.15651	15.69
634.17423	8.89
634.19196	3.69
634.20968	3.24
634.22739	11.54
634.24511	15.04
634.26282	13.69
634.28053	21.14
634.29824	14.09
634.31595	11.29
634.33365	7.94
634.35135	-4.01
634.36905	-6.96
634.38675	8.39
634.40444	8.64
634.42213	2.04
634.43982	3.24
634.4575	-0.91
634.47519	17.44
634.49287	25.49
634.51055	1.29
634.52822	2.74
634.5459	2.19
634.56357	-1.11
634.58124	-11.86
634.59891	4.89
634.61657	7.84
634.63423	13.84
634.65189	14.89
634.66955	3.14
634.6872	12.74
634.70485	6.19
634.7225	2.74
634.74015	10.99
634.75779	5.39
634.77544	5.54
634.79307	-0.66
634.81071	15.39
634.82835	8.49
634.84598	-0.06
634.86361	-0.26
634.88123	12.74
634.89886	7.94
634.91648	2.59
634.9341	4.29
634.95172	14.69
634.96933	9.49
634.98695	15.49
635.00456	4.79
635.02216	11.29
635.03977	14.09
635.05737	5.84
635.07497	1.54
635.09257	8.19
635.11016	10.89
635.12776	9.39
635.14535	1.69
635.16294	13.29
635.18052	6.74
635.1981	7.14
635.21569	7.09
635.23326	5.69
635.25084	10.19
635.26841	1.99
635.28598	5.04
635.30355	0.79
635.32112	-4.06
635.33868	-9.31
635.35624	-6.01
635.3738	2.49
635.39136	-0.86
635.40891	-0.71
635.42646	5.79
635.44401	6.84
635.46155	-1.36
635.4791	3.44
635.49664	8.44
635.51418	18.84
635.53171	7.64
635.54925	4.99
635.56678	0.29
635.58431	7.24
635.60184	19.34
635.61936	18.64
635.63688	0.79
635.6544	7.89
635.67192	0.99
635.68943	5.14
635.70694	3.74
635.72445	6.19
635.74196	-4.71
635.75946	-2.76
635.77697	-0.71
635.79447	1.99
635.81196	12.44
635.82946	0.64
635.84695	-7.01
635.86444	8.39
635.88193	7.29
635.89941	11.99
635.91689	4.89
635.93437	-0.71
635.95185	1.44
635.96933	-1.16
635.9868	12.44
636.00427	32.94
636.02174	9.74
636.0392	0.19
636.05666	17.84
636.07412	5.44
636.09158	1.09
636.10904	2.49
636.12649	9.89
636.14394	4.99
636.16139	18.59
636.17883	4.44
636.19628	-0.91
636.21372	-3.41
636.23116	3.09
636.24859	-1.61
636.26602	2.99
636.28345	11.69
636.30088	6.74
636.31831	4.99
636.33573	2.74
636.35315	7.19
636.37057	10.04
636.38799	2.44
636.4054	10.44
636.42281	12.29
636.44022	5.89
636.45763	-3.81
636.47503	-9.36
636.49243	-7.16
636.50983	-8.06
636.52723	-1.66
636.54462	1.84
636.56201	2.09
636.5794	-7.16
636.59679	-5.51
636.61417	3.89
636.63155	1.19
636.64893	18.49
636.66631	17.84
636.68368	1.64
636.70106	-4.51
636.71843	-6.16
636.73579	-4.76
636.75316	8.39
636.77052	8.54
636.78788	8.44
636.80524	1.59
636.82259	-7.26
636.83994	-4.86
636.85729	-4.61
636.87464	-6.66
636.89198	-2.76
636.90933	13.94
636.92667	10.04
636.944	-1.11
636.96134	-4.76
636.97867	-0.01
636.996	4.19
637.01333	9.29
637.03066	4.69
637.04798	-5.31
637.0653	3.39
637.08262	2.94
637.09993	-4.01
637.11724	-7.66
637.13455	5.54
637.15186	15.14
637.16917	8.94
637.18647	2.89
637.20377	9.79
637.22107	4.24
637.23837	6.14
637.25566	25.89
637.27295	7.69
637.29024	9.89
637.30752	-1.36
637.32481	0.64
637.34209	8.34
637.35937	18.64
637.37664	11.49
637.39392	6.09
637.41119	0.39
637.42846	4.39
637.44572	-1.36
637.46299	5.69
637.48025	22.99
637.49751	6.84
637.51476	-0.66
637.53202	9.49
637.54927	-1.06
637.56652	1.74
637.58376	4.14
637.60101	-4.06
637.61825	6.19
637.63549	6.59
637.65273	6.54
637.66996	0.94
637.68719	4.24
637.70442	4.79
637.72165	4.19
637.73887	9.04
637.7561	14.44
637.77332	7.29
637.79053	2.44
637.80775	9.44
637.82496	2.84
637.84217	9.39
637.85938	2.89
637.87658	7.59
637.89378	5.64
637.91098	2.34
637.92818	0.69
637.94538	8.74
637.96257	12.54
637.97976	5.29
637.99695	1.19
638.01413	-5.96
638.03132	-1.36
638.0485	1.59
638.06567	-10.51
638.08285	2.24
638.10002	5.89
638.11719	2.24
638.13436	1.69
638.15153	2.74
638.16869	-10.96
638.18585	-1.31
638.20301	-5.41
638.22016	-11.96
638.23732	-10.41
638.25447	-7.41
638.27162	-4.46
638.28876	-4.36
638.30591	-6.86
638.32305	3.64
638.34019	10.14
638.35732	11.29
638.37446	16.39
638.39159	-4.86
638.40872	-8.11
638.42584	1.89
638.44297	4.79
638.46009	-3.51
638.47721	1.84
638.49432	14.29
638.51144	9.59
638.52855	7.94
638.54566	-5.46
638.56276	-0.86
638.57987	-2.11
638.59697	3.14
638.61407	1.09
638.63117	-0.06
638.64826	1.99
638.66535	3.19
638.68244	2.29
638.69953	5.29
638.71661	10.19
638.7337	2.64
638.75078	2.94
638.76785	2.39
638.78493	1.44
638.802	-5.66
638.81907	3.94
638.83614	8.74
638.8532	12.29
638.87026	-4.91
638.88732	-10.06
638.90438	-2.41
638.92144	7.69
638.93849	8.54
638.95554	11.59
638.97259	5.99
638.98963	7.04
639.00668	11.34
639.02372	7.99
639.04075	12.94
639.05779	11.44
639.07482	7.84
639.09185	10.34
639.10888	-11.01
639.12591	-14.71
639.14293	-6.51
639.15995	3.34
639.17697	22.64
639.19398	18.54
639.211	24.89
639.22801	15.94
639.24502	-0.81
639.26202	3.14
639.27903	0.74
639.29603	8.69
639.31303	17.09
639.33002	-2.91
639.34702	5.89
639.36401	5.14
639.381	1.64
639.39798	5.09
639.41497	9.94
639.43195	13.59
639.44893	2.44
639.4659	8.09
639.48288	13.09
639.49985	13.69
639.51682	5.49
639.53379	-6.11
639.55075	-9.11
639.56771	-14.06
639.58467	-5.01
639.60163	4.49
639.61858	2.44
639.63553	4.89
639.65248	7.24
639.66943	-5.91
639.68638	-2.01
639.70332	9.39
639.72026	10.69
639.73719	1.44
639.75413	10.14
639.77106	21.44
639.78799	29.94
639.80492	26.74
639.82184	4.34
639.83877	-1.31
639.85569	4.69
639.8726	8.29
639.88952	10.19
639.90643	-4.61
639.92334	4.09
639.94025	4.19
639.95716	5.44
639.97406	6.74
639.99096	10.39
640.00786	3.09
640.02475	2.34
640.04165	-1.16
640.05854	6.29
640.07542	4.84
640.09231	8.79
640.10919	9.14
640.12607	14.14
640.14295	-0.36
640.15983	0.49
640.1767	2.74
640.19357	-0.91
640.21044	1.44
640.22731	9.34
640.24417	5.94
640.26103	12.54
640.27789	9.29
640.29475	-0.71
640.3116	-8.36
640.32845	-6.36
640.3453	6.19
640.36215	0.44
640.37899	2.49
640.39583	20.39
640.41267	22.04
640.42951	1.89
640.44634	-9.61
640.46317	4.19
640.48	-2.76
640.49683	-7.26
640.51365	-6.81
640.53048	-1.51
640.5473	2.94
640.56411	4.24
640.58093	14.64
640.59774	15.14
640.61455	-0.66
640.63136	2.89
640.64816	-2.61
640.66496	3.34
640.68176	14.04
640.69856	-3.51
640.71535	-0.21
640.73215	0.99
640.74894	-3.16
640.76572	13.64
640.78251	14.44
640.79929	6.69
640.81607	9.04
640.83285	7.24
640.84963	11.69
640.8664	12.74
640.88317	23.79
640.89994	7.94
640.9167	3.04
640.93346	-3.96
640.95022	-5.61
640.96698	-0.16
640.98374	0.74
641.00049	-5.51
641.01724	-6.01
641.03399	-11.11
641.05074	-4.71
641.06748	0.24
641.08422	7.19
641.10096	4.19
641.11769	11.69
641.13443	5.74
641.15116	4.74
641.16789	1.94
641.18461	-0.36
641.20134	17.54
641.21806	14.44
641.23478	1.89
641.25149	4.69
641.26821	13.54
641.28492	1.39
641.30163	4.54
641.31833	-5.51
641.33504	1.09
641.35174	0.94
641.36844	9.74
641.38514	9.39
641.40183	5.54
641.41852	6.24
641.43521	5.19
641.4519	24.44
641.46858	12.79
641.48526	0.89
641.50194	4.24
641.51862	0.14
641.53529	-2.66
641.55197	11.09
641.56864	19.54
641.5853	5.64
641.60197	7.14
641.61863	8.59
641.63529	-4.61
641.65195	-1.96
641.6686	8.64
641.68526	10.24
641.70191	14.09
641.71855	19.04
641.7352	18.04
641.75184	4.94
641.76848	2.89
641.78512	3.69
641.80175	-0.11
641.81839	13.09
641.83502	18.49
641.85164	17.19
641.86827	17.34
641.88489	11.14
641.90151	2.84
641.91813	3.94
641.93475	8.89
641.95136	4.79
641.96797	-2.86
641.98458	-9.16
642.00119	3.79
642.01779	7.09
642.03439	6.54
642.05099	5.49
642.06758	-5.16
642.08418	2.99
642.10077	4.84
642.11736	13.04
642.13394	4.79
642.15053	2.04
642.16711	1.09
642.18369	-0.06
642.20026	10.29
642.21684	15.24
642.23341	15.64
642.24998	12.59
642.26654	20.84
642.28311	12.24
642.29967	0.59
642.31623	-5.21
642.33279	4.49
642.34934	2.94
642.36589	-7.41
642.38244	-10.86
642.39899	39.64
642.41553	92.29
642.43207	14.99
642.44861	-9.31
642.46515	0.89
642.48169	7.94
642.49822	2.94
642.51475	6.99
642.53127	0.44
642.5478	2.14
642.56432	8.24
642.58084	9.54
642.59736	4.74
642.61387	7.19
642.63039	14.49
642.6469	13.94
642.6634	21.69
642.67991	4.79
642.69641	5.59
642.71291	1.09
642.72941	13.54
642.74591	17.24
642.7624	4.64
642.77889	3.24
642.79538	-4.11
642.81186	-3.61
642.82834	-8.31
642.84483	-4.36
642.8613	1.04
642.87778	-4.06
642.89425	13.39
642.91072	38.54
642.92719	0.04
642.94366	3.99
642.96012	16.39
642.97658	4.79
642.99304	4.64
643.0095	10.14
643.02595	2.14
643.0424	-1.36
643.05885	8.04
643.0753	-1.86
643.09174	-6.81
643.10818	-2.61
643.12462	-5.91
643.14106	-1.61
643.15749	-1.91
643.17392	4.44
643.19035	24.99
643.20678	18.04
643.2232	2.24
643.23962	12.44
643.25604	6.54
643.27246	1.74
643.28887	2.69
643.30528	10.74
643.32169	13.74
643.3381	7.44
643.35451	8.39
643.37091	12.74
643.38731	6.59
643.4037	-3.16
643.4201	-2.66
643.43649	7.14
643.45288	20.04
643.46927	9.39
643.48565	2.54
643.50204	11.94
643.51842	10.29
643.53479	2.19
643.55117	8.59
643.56754	4.09
643.58391	9.19
643.60028	4.64
643.61664	8.44
643.63301	8.74
643.64937	11.69
643.66572	5.49
643.68208	-1.31
643.69843	2.19
643.71478	-2.96
643.73113	-1.61
643.74748	-4.16
643.76382	8.29
643.78016	2.24
643.7965	8.64
643.81283	11.44
643.82917	12.84
643.8455	3.64
643.86183	15.34
643.87815	17.79
643.89448	15.74
643.9108	13.69
643.92712	8.14
643.94343	11.79
643.95974	-7.31
643.97606	-8.96
643.99236	1.99
644.00867	11.49
644.02497	4.84
644.04128	5.34
644.05758	9.24
644.07387	12.19
644.09017	6.94
644.10646	9.34
644.12275	6.54
644.13903	1.59
644.15532	1.99
644.1716	1.49
644.18788	22.99
644.20415	6.19
644.22043	5.99
644.2367	8.94
644.25297	6.19
644.26924	6.69
644.2855	8.84
644.30176	2.04
644.31802	3.09
644.33428	13.19
644.35054	20.34
644.36679	3.69
644.38304	4.14
644.39928	7.09
644.41553	12.44
644.43177	1.29
644.44801	-0.56
644.46425	1.04
644.48048	9.79
644.49672	7.14
644.51295	10.09
644.52917	6.34
644.5454	15.04
644.56162	2.99
644.57784	7.84
644.59406	5.34
644.61028	5.74
644.62649	4.89
644.6427	6.59
644.65891	0.99
644.67511	-3.51
644.69132	-1.06
644.70752	6.29
644.72372	11.94
644.73991	6.59
644.7561	8.14
644.7723	14.64
644.78848	24.34
644.80467	16.74
644.82085	2.69
644.83703	12.14
644.85321	15.99
644.86939	16.99
644.88556	15.99
644.90173	21.69
644.9179	21.64
644.93407	16.74
644.95023	23.04
644.96639	12.99
644.98255	13.09
644.99871	7.19
645.01486	6.79
645.03102	16.64
645.04716	18.89
645.06331	17.49
645.07946	43.79
645.0956	80.04
645.11174	18.09
645.12787	21.59
645.14401	12.69
645.16014	18.29
645.17627	9.99
645.1924	12.84
645.20852	21.29
645.22464	11.29
645.24076	25.69
645.25688	35.79
645.27299	20.09
645.28911	18.69
645.30522	8.34
645.32132	12.74
645.33743	14.99
645.35353	13.94
645.36963	5.44
645.38573	9.99
645.40182	11.19
645.41792	5.34
645.43401	-1.06
645.45009	7.04
645.46618	15.04
645.48226	2.09
645.49834	9.94
645.51442	2.69
645.5305	5.99
645.54657	7.29
645.56264	10.74
645.57871	4.24
645.59477	9.49
645.61084	8.14
645.6269	14.99
645.64296	16.69
645.65901	12.94
645.67507	15.14
645.69112	9.09
645.70716	5.19
645.72321	1.29
645.73925	9.44
645.7553	9.39
645.77133	0.34
645.78737	6.74
645.8034	20.04
645.81944	27.44
645.83546	8.24
645.85149	30.59
645.86751	11.34
645.88354	1.24
645.89955	2.74
645.91557	3.79
645.93159	-1.61
645.9476	2.94
645.96361	8.34
645.97961	10.19
645.99562	11.09
646.01162	11.64
646.02762	8.59
646.04361	6.39
646.05961	0.79
646.0756	1.89
646.09159	8.94
646.10758	0.29
646.12356	7.29
646.13954	12.64
646.15552	8.34
646.1715	20.54
646.18748	12.44
646.20345	6.54
646.21942	-2.71
646.23539	17.59
646.25135	22.34
646.26731	4.79
646.28327	13.04
646.29923	5.49
646.31519	17.69
646.33114	21.44
646.34709	16.04
646.36304	7.19
646.37898	-0.91
646.39493	-8.81
646.41087	-1.71
646.4268	0.79
646.44274	-4.06
646.45867	-1.41
646.4746	11.14
646.49053	9.14
646.50646	0.99
646.52238	-8.46
646.5383	-5.76
646.55422	-2.26
646.57014	2.84
646.58605	4.29
646.60196	9.39
646.61787	7.04
646.63377	8.34
646.64968	10.24
646.66558	0.79
646.68148	-1.56
646.69737	11.59
646.71327	5.54
646.72916	0.69
646.74505	6.89
646.76093	17.34
646.77682	15.59
646.7927	2.99
646.80858	6.19
646.82446	-4.66
646.84033	-0.21
646.8562	1.54
646.87207	1.64
646.88794	11.84
646.9038	-0.71
646.91966	3.34
646.93552	5.14
646.95138	1.89
646.96723	8.24
646.98309	15.19
646.99894	8.94
647.01478	6.89
647.03063	16.89
647.04647	4.49
647.06231	-1.86
647.07815	-4.11
647.09398	1.04
647.10981	2.94
647.12564	-1.46
647.14147	5.64
647.1573	18.39
647.17312	5.29
647.18894	1.24
647.20476	-7.21
647.22057	-7.66
647.23638	-0.21
647.25219	-0.56
647.268	-1.86
647.28381	-1.11
647.29961	9.89
647.31541	0.39
647.33121	0.79
647.34701	8.79
647.3628	3.44
647.37859	7.89
647.39438	8.74
647.41016	6.59
647.42595	5.39
647.44173	4.19
647.45751	1.04
647.47328	1.64
647.48905	2.44
647.50483	13.24
647.52059	7.84
647.53636	3.94
647.55212	-1.31
647.56789	12.39
647.58364	41.14
647.5994	6.84
647.61515	5.14
647.63091	6.89
647.64665	2.64
647.6624	3.34
647.67814	-3.71
647.69389	-7.51
647.70963	-4.41
647.72536	-16.66
647.7411	-12.86
647.75683	-3.71
647.77256	4.94
647.78828	4.44
647.80401	0.89
647.81973	5.84
647.83545	8.44
647.85117	7.49
647.86688	3.74
647.88259	-0.71
647.8983	6.54
647.91401	17.09
647.92971	14.09
647.94542	-2.21
647.96112	4.84
647.97681	14.99
647.99251	5.24
648.0082	9.59
648.02389	9.34
648.03958	-1.81
648.05526	2.04
648.07095	1.14
648.08663	-0.26
648.1023	-6.01
648.11798	-6.11
648.13365	-7.61
648.14932	2.59
648.16499	8.74
648.18066	2.49
648.19632	-2.41
648.21198	-5.41
648.22764	-3.31
648.24329	4.79
648.25895	8.24
648.2746	-3.21
648.29025	-1.16
648.30589	4.39
648.32153	6.64
648.33718	1.44
648.35281	15.24
648.36845	38.09
648.38408	70.79
648.39971	8.64
648.41534	-1.01
648.43097	2.74
648.44659	5.84
648.46221	14.14
648.47783	9.39
648.49345	-5.66
648.50906	5.74
648.52467	9.89
648.54028	-4.11
648.55589	-3.41
648.57149	14.44
648.5871	5.64
648.6027	3.39
648.61829	6.69
648.63389	5.99
648.64948	7.64
648.66507	9.94
648.68065	-1.91
648.69624	6.94
648.71182	25.04
648.7274	27.29
648.74298	20.84
648.75855	26.24
648.77412	20.24
648.78969	4.39
648.80526	-4.21
648.82083	2.29
648.83639	5.49
648.85195	-1.61
648.8675	4.24
648.88306	8.54
648.89861	1.84
648.91416	-2.76
648.92971	5.24
648.94526	16.64
648.9608	22.34
648.97634	11.84
648.99188	9.09
649.00741	7.04
649.02294	5.19
649.03847	6.34
649.054	-0.81
649.06953	7.69
649.08505	-1.16
649.10057	3.64
649.11609	-4.61
649.13161	5.49
649.14712	2.84
649.16263	4.04
649.17814	2.84
649.19364	5.24
649.20915	18.19
649.22465	19.04
649.24015	16.99
649.25564	21.54
649.27114	10.19
649.28663	3.34
649.30212	0.14
649.3176	2.99
649.33309	-6.26
649.34857	3.84
649.36405	9.94
649.37952	16.19
649.395	10.99
649.41047	16.09
649.42594	12.24
649.4414	2.19
649.45687	7.64
649.47233	-5.41
649.48779	6.34
649.50324	15.89
649.5187	15.24
649.53415	12.39
649.5496	13.89
649.56505	13.24
649.58049	9.74
649.59593	8.64
649.61137	9.09
649.62681	11.19
649.64224	3.19
649.65768	-2.86
649.67311	15.19
649.68853	23.04
649.70396	12.64
649.71938	14.74
649.7348	8.84
649.75022	21.14
649.76563	8.44
649.78105	10.59
649.79646	-5.26
649.81186	2.54
649.82727	12.54
649.84267	3.54
649.85807	9.19
649.87347	-4.21
649.88886	3.19
649.90426	5.39
649.91965	4.29
649.93504	2.59
649.95042	11.54
649.9658	-1.06
649.98119	2.69
649.99656	10.89
650.01194	2.34
650.02731	3.19
650.04268	1.44
650.05805	1.94
650.07342	2.94
650.08878	10.94
650.10414	15.44
650.1195	-0.36
650.13486	0.44
650.15021	2.84
650.16556	11.59
650.18091	14.44
650.19626	12.24
650.2116	11.79
650.22694	7.19
650.24228	14.94
650.25762	5.74
650.27295	5.64
650.28828	3.39
650.30361	8.64
650.31894	2.99
650.33426	-0.51
650.34958	3.99
650.3649	28.54
650.38022	12.54
650.39553	-2.96
650.41085	4.64
650.42616	4.74
650.44146	7.74
650.45677	8.04
650.47207	11.44
650.48737	18.39
650.50267	-0.16
650.51796	-6.21
650.53325	5.89
650.54854	12.69
650.56383	11.44
650.57911	6.64
650.5944	7.54
650.60968	9.94
650.62495	7.09
650.64023	7.94
650.6555	-1.86
650.67077	-1.11
650.68604	4.09
650.70131	8.89
650.71657	8.39
650.73183	16.44
650.74709	10.44
650.76234	9.34
650.77759	11.74
650.79285	13.14
650.80809	9.04
650.82334	4.69
650.83858	5.69
650.85382	7.39
650.86906	13.74
650.8843	24.74
650.89953	6.29
650.91476	2.49
650.92999	0.84
650.94522	6.44
650.96044	10.69
650.97566	8.59
650.99088	2.49
651.00609	-0.81
651.02131	-0.01
651.03652	5.29
651.05173	4.44
651.06693	-12.36
651.08214	-4.26
651.09734	-3.76
651.11254	-3.31
651.12773	-0.41
651.14293	10.49
651.15812	-0.71
651.17331	1.74
651.1885	11.69
651.20368	-5.11
651.21886	-4.06
651.23404	7.79
651.24922	10.09
651.26439	6.39
651.27956	7.79
651.29473	-0.41
651.3099	13.89
651.32507	-7.41
651.34023	0.29
651.35539	-1.66
651.37054	-7.26
651.3857	-12.76
651.40085	1.39
651.416	7.39
651.43115	1.54
651.44629	-3.31
651.46144	-4.76
651.47658	6.54
651.49171	18.94
651.50685	11.94
651.52198	2.94
651.53711	0.64
651.55224	-1.71
651.56736	6.54
651.58249	12.99
651.59761	11.59
651.61273	-11.86
651.62784	1.24
651.64295	4.29
651.65806	0.64
651.67317	3.04
651.68828	2.54
651.70338	8.54
651.71848	16.34
651.73358	20.99
651.74868	-2.41
651.76377	4.19
651.77886	5.89
651.79395	0.09
651.80904	-3.86
651.82412	12.79
651.8392	4.89
651.85428	6.54
651.86935	11.14
651.88443	13.49
651.8995	3.69
651.91457	-1.01
651.92963	0.39
651.9447	20.79
651.95976	10.94
651.97482	6.39
651.98988	6.39
652.00493	-2.46
652.01998	2.69
652.03503	16.09
652.05008	26.34
652.06512	61.99
652.08016	8.04
652.0952	6.19
652.11024	33.04
652.12527	12.34
652.14031	4.84
652.15534	6.64
652.17036	14.04
652.18539	4.69
652.20041	13.04
652.21543	8.99
652.23045	-1.96
652.24546	3.04
652.26047	10.39
652.27548	9.34
652.29049	8.99
652.3055	4.59
652.3205	7.39
652.3355	5.64
652.3505	1.39
652.36549	8.44
652.38048	14.14
652.39547	11.89
652.41046	6.39
652.42545	16.84
652.44043	16.39
652.45541	1.39
652.47039	9.04
652.48536	-0.56
652.50034	-10.46
652.51531	-9.06
652.53028	1.04
652.54524	0.89
652.5602	-2.96
652.57517	-6.76
652.59012	28.99
652.60508	76.39
652.62003	11.34
652.63498	-3.91
652.64993	-6.21
652.66488	-2.51
652.67982	5.19
652.69476	9.84
652.7097	-4.96
652.72464	-5.11
652.73957	4.19
652.7545	9.99
652.76943	22.44
652.78436	4.09
652.79928	5.24
652.8142	11.84
652.82912	6.69
652.84404	2.54
652.85895	-5.31
652.87387	2.79
652.88877	16.14
652.90368	14.54
652.91859	-6.16
652.93349	-0.41
652.94839	3.94
652.96328	4.54
652.97818	0.69
652.99307	5.99
653.00796	10.69
653.02285	-0.01
653.03773	4.34
653.05261	1.54
653.06749	0.69
653.08237	-0.86
653.09725	0.39
653.11212	2.64
653.12699	0.64
653.14186	12.39
653.15672	23.34
653.17158	2.69
653.18644	13.44
653.2013	8.14
653.21616	11.24
653.23101	13.79
653.24586	1.44
653.26071	-4.91
653.27555	14.19
653.29039	13.24
653.30524	2.44
653.32007	4.54
653.33491	133.19
653.34974	315.14
653.36457	25.49
653.3794	0.64
653.39423	-4.46
653.40905	-1.91
653.42387	-0.11
653.43869	2.99
653.45351	-1.51
653.46832	-5.36
653.48313	-8.06
653.49794	1.19
653.51274	11.59
653.52755	14.99
653.54235	5.34
653.55715	-6.36
653.57194	1.89
653.58674	10.49
653.60153	5.34
653.61632	1.39
653.6311	-8.61
653.64589	-4.51
653.66067	9.39
653.67545	5.54
653.69023	-4.11
653.705	-6.41
653.71977	-2.36
653.73454	-0.01
653.74931	-0.96
653.76407	3.29
653.77883	6.84
653.79359	9.34
653.80835	0.74
653.8231	2.19
653.83786	7.59
653.85261	20.74
653.86735	10.29
653.8821	31.59
653.89684	6.84
653.91158	2.79
653.92632	16.29
653.94105	11.64
653.95579	12.99
653.97052	-5.61
653.98524	-7.31
653.99997	4.04
654.01469	3.29
654.02941	3.74
654.04413	9.29
654.05884	3.89
654.07356	13.79
654.08827	43.54
654.10297	84.84
654.11768	17.49
654.13238	20.44
654.14708	9.79
654.16178	-4.06
654.17648	3.14
654.19117	-7.81
654.20586	-7.01
654.22055	4.59
654.23524	5.84
654.24992	37.14
654.2646	63.59
654.27928	25.14
654.29395	18.99
654.30863	25.04
654.3233	21.64
654.33797	6.44
654.35263	10.29
654.3673	17.29
654.38196	13.04
654.39662	-1.61
654.41127	2.34
654.42593	10.19
654.44058	13.19
654.45523	2.39
654.46987	-1.66
654.48452	7.89
654.49916	5.94
654.5138	6.39
654.52844	7.34
654.54307	9.49
654.5577	20.69
654.57233	7.49
654.58696	8.89
654.60158	8.09
654.6162	3.14
654.63082	-1.21
654.64544	7.14
654.66005	-0.71
654.67467	-2.76
654.68928	6.39
654.70388	9.24
654.71849	12.54
654.73309	49.54
654.74769	106.54
654.76229	12.54
654.77688	13.34
654.79148	8.34
654.80607	-1.51
654.82065	12.79
654.83524	10.84
654.84982	4.29
654.8644	0.54
654.87898	-3.66
654.89355	0.04
654.90813	2.79
654.9227	-0.06
654.93727	-0.16
654.95183	5.69
654.96639	6.49
654.98095	8.64
654.99551	4.39
655.01007	12.44
655.02462	-1.06
655.03917	-1.56
655.05372	-5.06
655.06827	-2.36
655.08281	8.89
655.09735	0.84
655.11189	-2.11
655.12643	-2.56
655.14096	-1.81
655.15549	8.59
655.17002	-2.16
655.18454	-0.61
655.19907	-0.01
655.21359	8.84
655.22811	17.74
655.24262	9.64
655.25714	7.24
655.27165	8.99
655.28616	-7.16
655.30067	-4.31
655.31517	0.84
655.32967	2.39
655.34417	2.24
655.35867	-0.01
655.37316	-1.51
655.38765	-8.46
655.40214	2.94
655.41663	10.59
655.43111	9.49
655.4456	15.59
655.46008	-6.41
655.47455	-4.61
655.48903	-1.16
655.5035	-0.96
655.51797	-1.26
655.53244	6.04
655.5469	12.19
655.56136	18.59
655.57582	3.79
655.59028	2.39
655.60474	-7.31
655.61919	-2.51
655.63364	16.69
655.64809	25.74
655.66253	6.84
655.67697	-1.71
655.69141	8.24
655.70585	7.24
655.72029	2.99
655.73472	-1.46
655.74915	-5.21
655.76358	-5.06
655.778	-0.21
655.79243	17.04
655.80685	8.64
655.82127	-0.46
655.83568	7.39
655.8501	24.39
655.86451	13.14
655.87891	14.99
655.89332	7.49
655.90772	-3.26
655.92212	-0.61
655.93652	18.09
655.95092	13.29
655.96531	6.09
655.9797	0.69
655.99409	6.79
656.00848	3.79
656.02286	13.69
656.03724	10.34
656.05162	5.04
656.066	-4.11
656.08037	0.39
656.09475	2.79
656.10911	0.94
656.12348	4.89
656.13784	11.84
656.15221	5.64
656.16657	17.04
656.18092	11.29
656.19528	12.59
656.20963	5.59
656.22398	0.64
656.23833	13.74
656.25267	14.19
656.26701	16.49
656.28135	0.69
656.29569	2.29
656.31002	16.44
656.32436	19.29
656.33869	18.49
656.35301	8.49
656.36734	3.14
656.38166	-3.56
656.39598	-4.71
656.4103	-5.06
656.42461	1.34
656.43892	3.64
656.45323	-0.76
656.46754	4.69
656.48185	2.24
656.49615	0.64
656.51045	5.24
656.52475	4.09
656.53904	5.19
656.55334	-0.46
656.56763	-1.46
656.58192	2.84
656.5962	3.89
656.61048	-1.41
656.62476	0.84
656.63904	4.44
656.65332	6.69
656.66759	4.69
656.68186	1.19
656.69613	4.29
656.7104	1.64
656.72466	10.54
656.73892	9.54
656.75318	15.69
656.76744	3.89
656.78169	7.59
656.79594	21.44
656.81019	36.69
656.82444	-1.21
656.83868	4.84
656.85292	7.29
656.86716	4.74
656.8814	8.54
656.89563	1.44
656.90986	-1.61
656.92409	2.69
656.93832	7.09
656.95254	8.49
656.96676	9.39
656.98098	21.09
656.9952	6.74
657.00941	6.94
657.02363	-7.46
657.03784	-3.26
657.05204	2.34
657.06625	20.69
657.08045	4.39
657.09465	6.74
657.10885	-5.86
657.12304	0.44
657.13723	1.54
657.15142	4.79
657.16561	-0.91
657.1798	-5.66
657.19398	-16.61
657.20816	-1.16
657.22234	-2.31
657.23651	0.34
657.25068	1.64
657.26485	5.49
657.27902	0.04
657.29319	-8.31
657.30735	3.94
657.32151	2.64
657.33567	6.64
657.34982	21.99
657.36398	14.19
657.37813	16.69
657.39227	0.94
657.40642	13.59
657.42056	19.79
657.4347	8.44
657.44884	5.59
657.46298	1.64
657.47711	15.04
657.49124	24.19
657.50537	0.79
657.5195	1.34
657.53362	-0.76
657.54774	0.99
657.56186	18.84
657.57598	26.39
657.59009	8.44
657.6042	9.69
657.61831	5.49
657.63242	5.89
657.64652	7.49
657.66062	10.39
657.67472	12.39
657.68882	10.29
657.70291	2.19
657.717	1.64
657.73109	2.79
657.74518	10.14
657.75926	1.49
657.77335	-5.66
657.78742	0.34
657.8015	-1.51
657.81558	4.49
657.82965	8.24
657.84372	-2.61
657.85778	7.79
657.87185	-0.31
657.88591	5.14
657.89997	2.94
657.91403	12.64
657.92808	18.34
657.94214	8.19
657.95618	9.09
657.97023	2.84
657.98428	10.44
657.99832	34.14
658.01236	9.19
658.0264	-9.01
658.04043	2.84
658.05447	3.19
658.0685	-8.56
658.08252	-5.46
658.09655	7.19
658.11057	16.89
658.12459	16.19
658.13861	25.44
658.15263	12.54
658.16664	26.99
658.18065	10.39
658.19466	-0.06
658.20866	-8.31
658.22267	-3.61
658.23667	5.54
658.25067	5.14
658.26466	9.04
658.27865	7.29
658.29265	0.74
658.30663	4.39
658.32062	3.69
658.3346	5.49
658.34858	7.34
658.36256	9.09
658.37654	5.04
658.39051	11.94
658.40448	12.99
658.41845	5.84
658.43242	8.19
658.44638	-1.21
658.46035	-4.11
658.4743	6.24
658.48826	10.49
658.50221	17.79
658.51617	6.59
658.53012	-0.36
658.54406	-1.56
658.55801	1.99
658.57195	-1.86
658.58589	13.34
658.59983	11.34
658.61376	-0.91
658.62769	2.79
658.64162	16.19
658.65555	12.54
658.66947	4.19
658.6834	41.09
658.69731	94.59
658.71123	15.99
658.72515	11.39
658.73906	6.54
658.75297	7.74
658.76688	3.39
658.78078	15.59
658.79468	7.09
658.80858	-2.81
658.82248	-0.61
658.83638	3.59
658.85027	11.39
658.86416	5.24
658.87805	2.79
658.89193	0.84
658.90582	4.59
658.9197	2.44
658.93357	5.04
658.94745	3.49
658.96132	-4.56
658.97519	6.39
658.98906	-4.01
659.00293	-3.71
659.01679	-3.36
659.03065	0.84
659.04451	11.79
659.05837	4.84
659.07222	2.19
659.08607	6.14
659.09992	11.54
659.11377	6.99
659.12761	-0.01
659.14145	6.69
659.15529	12.49
659.16913	10.69
659.18296	10.29
659.19679	1.59
659.21062	10.69
659.22445	7.99
659.23827	32.14
659.25209	21.49
659.26591	10.59
659.27973	16.24
659.29354	5.44
659.30735	-0.01
659.32116	6.69
659.33497	3.54
659.34877	-8.36
659.36258	1.04
659.37637	15.44
659.39017	13.84
659.40397	-4.21
659.41776	-0.41
659.43155	7.99
659.44533	8.54
659.45912	18.94
659.4729	-0.01
659.48668	7.89
659.50046	5.24
659.51423	4.49
659.52801	11.09
659.54178	15.74
659.55554	1.19
659.56931	6.74
659.58307	4.54
659.59683	8.49
659.61059	10.14
659.62434	37.44
659.6381	66.34
659.65185	7.59
659.6656	0.39
659.67934	3.59
659.69308	3.19
659.70682	6.99
659.72056	6.34
659.7343	11.74
659.74803	3.64
659.76176	4.69
659.77549	5.64
659.78922	14.74
659.80294	-9.11
659.81666	-5.86
659.83038	10.84
659.84409	10.44
659.85781	-1.81
659.87152	-1.16
659.88523	1.79
659.89893	0.89
659.91264	9.04
659.92634	17.49
659.94004	11.54
659.95373	10.79
659.96743	13.99
659.98112	18.04
659.99481	12.39
660.00849	7.14
660.02218	9.44
660.03586	13.49
660.04954	-0.76
660.06322	3.74
660.07689	19.64
660.09056	25.64
660.10423	-6.61
660.1179	4.04
660.13156	12.64
660.14522	5.04
660.15888	3.39
660.17254	3.64
660.1862	10.64
660.19985	9.89
660.2135	0.49
660.22714	3.79
660.24079	3.54
660.25443	1.79
660.26807	9.84
660.28171	13.79
660.29534	12.89
660.30898	7.04
660.32261	-2.86
660.33623	-9.66
660.34986	-7.86
660.36348	9.09
660.3771	6.44
660.39072	20.94
660.40433	18.29
660.41795	17.19
660.43156	3.89
660.44517	10.74
660.45877	13.94
660.47237	6.84
660.48598	4.74
660.49957	1.59
660.51317	2.24
660.52676	4.44
660.54035	13.29
660.55394	18.29
660.56753	9.34
660.58111	15.74
660.59469	19.69
660.60827	-3.71
660.62185	5.39
660.63542	13.44
660.64899	18.14
660.66256	20.89
660.67613	13.09
660.68969	16.29
660.70325	14.54
660.71681	-0.11
660.73037	-2.96
660.74392	5.39
660.75747	3.69
660.77102	7.04
660.78457	0.94
660.79811	15.04
660.81165	16.14
660.82519	11.49
660.83873	7.29
660.85226	9.84
660.86579	18.94
660.87932	8.04
660.89285	4.34
660.90637	16.49
660.9199	11.79
660.93342	6.29
660.94693	14.64
660.96045	3.04
660.97396	6.99
660.98747	18.84
661.00098	5.54
661.01448	-0.11
661.02798	5.89
661.04148	7.39
661.05498	17.89
661.06848	7.64
661.08197	0.89
661.09546	22.79
661.10895	42.14
661.12243	10.79
661.13591	9.54
661.14939	-5.41
661.16287	-0.31
661.17635	15.14
661.18982	15.99
661.20329	26.14
661.21676	20.19
661.23022	6.59
661.24369	5.24
661.25715	9.94
661.27061	1.29
661.28406	14.14
661.29752	-4.76
661.31097	-0.81
661.32441	6.69
661.33786	2.84
661.3513	0.64
661.36474	4.69
661.37818	8.64
661.39162	9.44
661.40505	50.04
661.41848	119.79
661.43191	18.24
661.44534	5.34
661.45876	7.89
661.47218	13.29
661.4856	13.99
661.49902	15.99
661.51243	3.04
661.52585	16.79
661.53925	12.99
661.55266	11.84
661.56606	6.29
661.57947	9.54
661.59287	-1.06
661.60626	0.69
661.61966	12.04
661.63305	7.99
661.64644	8.84
661.65983	7.19
661.67321	10.04
661.68659	7.34
661.69997	19.59
661.71335	12.39
661.72672	23.49
661.7401	49.04
661.75347	9.74
661.76683	10.49
661.7802	21.59
661.79356	22.29
661.80692	2.54
661.82028	11.44
661.83363	9.39
661.84698	0.44
661.86033	14.09
661.87368	12.69
661.88703	15.39
661.90037	12.29
661.91371	8.14
661.92705	4.09
661.94038	1.94
661.95372	5.24
661.96705	23.14
661.98038	26.19
661.9937	10.34
662.00702	3.44
662.02034	15.94
662.03366	12.29
662.04698	8.69
662.06029	-0.46
662.0736	-3.21
662.08691	-0.56
662.10022	3.29
662.11352	9.59
662.12682	9.94
662.14012	-6.01
662.15342	4.89
662.16671	14.49
662.18	2.79
662.19329	4.19
662.20658	0.64
662.21986	2.64
662.23314	5.49
662.24642	-0.11
662.2597	13.14
662.27297	9.59
662.28624	1.89
662.29951	11.64
662.31278	0.94
662.32604	-2.56
662.3393	3.19
662.35256	1.69
662.36582	-0.16
662.37907	0.04
662.39233	2.39
662.40558	8.74
662.41882	8.99
662.43207	13.84
662.44531	5.89
662.45855	-0.36
662.47179	1.59
662.48502	6.44
662.49825	2.14
662.51148	13.69
662.52471	18.74
662.53794	5.69
662.55116	12.49
662.56438	6.19
662.5776	4.04
662.59081	16.59
662.60402	20.29
662.61723	9.19
662.63044	14.04
662.64365	7.59
662.65685	7.19
662.67005	17.89
662.68325	21.44
662.69644	3.54
662.70964	7.04
662.72283	13.59
662.73601	11.74
662.7492	12.19
662.76238	8.69
662.77556	3.89
662.78874	14.44
662.80192	17.24
662.81509	24.14
662.82826	13.49
662.84143	0.59
662.8546	4.49
662.86776	6.19
662.88092	-0.46
662.89408	-1.81
662.90724	10.09
662.92039	30.49
662.93354	9.29
662.94669	3.39
662.95984	6.24
662.97298	3.54
662.98612	-1.01
662.99926	-3.11
663.0124	11.94
663.02553	13.24
663.03866	9.84
663.05179	7.19
663.06492	12.24
663.07804	17.49
663.09116	15.19
663.10428	2.69
663.1174	-2.31
663.13052	8.39
663.14363	9.99
663.15674	2.64
663.16984	10.69
663.18295	15.69
663.19605	16.49
663.20915	15.54
663.22225	13.74
663.23534	14.64
663.24843	1.94
663.26152	-0.56
663.27461	0.04
663.2877	6.29
663.30078	5.29
663.31386	8.89
663.32694	9.24
663.34001	21.74
663.35308	15.99
663.36615	1.49
663.37922	14.54
663.39229	21.34
663.40535	-3.51
663.41841	-7.06
663.43147	-0.21
663.44452	9.69
663.45758	15.74
663.47063	10.74
663.48368	8.89
663.49672	9.44
663.50977	-2.46
663.52281	5.54
663.53584	-0.31
663.54888	-5.31
663.56191	-3.66
663.57494	-4.91
663.58797	-6.41
663.601	1.69
663.61402	5.04
663.62704	13.24
663.64006	6.04
663.65308	5.74
663.66609	-3.01
663.6791	-4.86
663.69211	18.79
663.70512	24.64
663.71812	2.34
663.73112	0.04
663.74412	1.74
663.75712	15.24
663.77011	8.14
663.78311	9.99
663.79609	11.79
663.80908	10.34
663.82207	6.19
663.83505	-6.01
663.84803	-0.16
663.861	4.29
663.87398	9.39
663.88695	7.24
663.89992	3.19
663.91289	2.94
663.92585	8.94
663.93881	2.79
663.95177	11.74
663.96473	26.89
663.97769	10.59
663.99064	-3.91
664.00359	3.29
664.01654	19.29
664.02948	16.49
664.04242	13.09
664.05536	9.89
664.0683	13.44
664.08124	10.84
664.09417	15.09
664.1071	13.69
664.12003	10.64
664.13295	6.74
664.14588	4.14
664.1588	2.14
664.17171	1.04
664.18463	9.14
664.19754	5.94
664.21045	17.09
664.22336	7.64
664.23627	15.29
664.24917	14.14
664.26207	7.04
664.27497	4.64
664.28787	12.69
664.30076	18.39
664.31365	4.44
664.32654	9.54
664.33942	0.89
664.35231	3.99
664.36519	3.94
664.37807	5.34
664.39094	11.94
664.40382	18.79
664.41669	15.34
664.42956	8.79
664.44242	7.64
664.45529	7.14
664.46815	4.29
664.48101	9.09
664.49387	16.34
664.50672	-5.86
664.51957	-2.71
664.53242	8.29
664.54527	7.34
664.55811	8.99
664.57095	4.99
664.58379	8.69
664.59663	0.49
664.60946	6.79
664.6223	12.14
664.63513	16.64
664.64795	17.14
664.66078	10.34
664.6736	6.89
664.68642	4.84
664.69924	4.39
664.71205	5.54
664.72486	0.94
664.73767	4.79
664.75048	16.34
664.76329	14.84
664.77609	5.44
664.78889	19.89
664.80169	11.99
664.81448	2.49
664.82728	5.24
664.84007	7.24
664.85285	0.99
664.86564	11.79
664.87842	0.34
664.8912	-2.61
664.90398	15.94
664.91676	16.94
664.92953	6.79
664.9423	17.14
664.95507	15.09
664.96783	11.34
664.9806	14.64
664.99336	8.99
665.00612	7.79
665.01887	12.34
665.03163	11.49
665.04438	13.19
665.05713	19.24
665.06987	3.54
665.08262	-3.81
665.09536	1.19
665.1081	7.94
665.12083	9.04
665.13357	2.59
665.1463	21.09
665.15903	18.79
665.17175	24.49
665.18448	6.24
665.1972	6.94
665.20992	6.19
665.22263	10.64
665.23535	29.49
665.24806	53.04
665.26077	6.44
665.27348	1.84
665.28618	16.14
665.29888	15.54
665.31158	3.44
665.32428	18.19
665.33697	13.19
665.34967	7.29
665.36236	3.29
665.37504	9.74
665.38773	10.09
665.40041	17.29
665.41309	13.39
665.42577	10.49
665.43844	3.14
665.45111	4.04
665.46378	3.94
665.47645	7.99
665.48912	11.84
665.50178	10.84
665.51444	4.04
665.5271	13.24
665.53975	4.84
665.55241	-0.31
665.56506	6.34
665.5777	2.54
665.59035	8.44
665.60299	13.84
665.61563	16.89
665.62827	15.49
665.64091	8.39
665.65354	0.59
665.66617	8.54
665.6788	10.74
665.69142	18.19
665.70405	14.79
665.71667	1.99
665.72929	2.24
665.7419	6.89
665.75452	-3.31
665.76713	2.59
665.77974	6.39
665.79234	18.74
665.80495	13.99
665.81755	12.84
665.83015	-1.41
665.84274	12.34
665.85534	6.19
665.86793	6.29
665.88052	7.29
665.8931	14.64
665.90569	5.94
665.91827	4.14
665.93085	-2.76
665.94343	15.34
665.956	11.69
665.96857	-2.61
665.98114	-0.61
665.99371	-11.61
666.00627	-11.41
666.01883	-2.06
666.03139	14.84
666.04395	11.84
666.05651	19.74
666.06906	22.39
666.08161	9.99
666.09415	6.59
666.1067	7.09
666.11924	5.34
666.13178	4.94
666.14432	1.99
666.15685	-2.21
666.16939	2.89
666.18192	5.04
666.19444	6.94
666.20697	15.19
666.21949	17.44
666.23201	15.44
666.24453	6.54
666.25705	16.44
666.26956	8.34
666.28207	10.14
666.29458	6.09
666.30708	2.59
666.31959	7.79
666.33209	13.19
666.34458	9.74
666.35708	10.84
666.36957	16.24
666.38206	14.94
666.39455	13.29
666.40704	3.69
666.41952	8.54
666.432	9.54
666.44448	10.84
666.45696	1.74
666.46943	3.29
666.4819	5.64
666.49437	12.54
666.50684	12.99
666.5193	-0.16
666.53176	-7.56
666.54422	-0.76
666.55668	15.04
666.56913	3.84
666.58158	7.69
666.59403	14.94
666.60648	11.64
666.61892	8.14
666.63136	12.99
666.6438	11.39
666.65624	5.39
666.66867	15.99
666.68111	15.19
666.69354	17.59
666.70596	17.14
666.71839	4.94
666.73081	9.09
666.74323	6.14
666.75565	15.39
666.76806	15.24
666.78047	0.44
666.79288	4.49
666.80529	12.59
666.81769	10.74
666.8301	9.94
666.8425	10.29
666.85489	-0.81
666.86729	4.39
666.87968	0.04
666.89207	2.14
666.90446	10.89
666.91684	17.84
666.92923	9.04
666.94161	26.49
666.95399	44.89
666.96636	10.89
666.97873	10.64
666.9911	-3.76
667.00347	12.84
667.01584	21.14
667.0282	19.74
667.04056	5.19
667.05292	10.09
667.06528	11.09
667.07763	3.89
667.08998	11.84
667.10233	20.49
667.11467	10.09
667.12702	5.44
667.13936	14.09
667.1517	32.19
667.16403	24.84
667.17637	29.74
667.1887	28.29
667.20103	38.14
667.21335	78.34
667.22568	217.14
667.238	707.84
667.25032	2178.54
667.26263	4459.99
667.27495	5207.59
667.28726	3697.44
667.29957	2438.84
667.31188	1962.74
667.32418	1629.24
667.33648	1343.24
667.34878	1093.99
667.36108	824.74
667.37337	567.19
667.38566	369.29
667.39795	246.89
667.41024	157.94
667.42252	123.34
667.43481	90.34
667.44709	57.09
667.45936	42.69
667.47164	40.39
667.48391	32.19
667.49618	14.29
667.50845	10.94
667.52071	22.54
667.53297	19.49
667.54523	17.24
667.55749	14.04
667.56975	16.54
667.582	9.89
667.59425	15.24
667.6065	29.59
667.61874	9.74
667.63099	22.19
667.64323	21.64
667.65546	4.34
667.6677	6.04
667.67993	11.84
667.69216	14.89
667.70439	5.94
667.71662	7.69
667.72884	15.24
667.74106	13.54
667.75328	9.54
667.76549	10.59
667.77771	8.09
667.78992	13.39
667.80213	10.64
667.81433	2.24
667.82654	10.64
667.83874	11.49
667.85094	-3.61
667.86313	-8.01
667.87533	-2.61
667.88752	0.89
667.89971	4.74
667.91189	2.44
667.92408	-3.41
667.93626	3.49
667.94844	10.99
667.96061	11.79
667.97279	1.64
667.98496	4.19
667.99713	-0.11
668.0093	6.19
668.02146	16.24
668.03362	15.39
668.04578	5.39
668.05794	-5.06
668.07009	4.39
668.08224	11.74
668.09439	27.04
668.10654	16.19
668.11868	18.24
668.13083	8.84
668.14297	7.04
668.1551	9.89
668.16724	12.14
668.17937	13.14
668.1915	5.39
668.20363	9.19
668.21575	7.44
668.22788	-1.31
668.24	8.19
668.25211	19.54
668.26423	22.94
668.27634	6.29
668.28845	5.34
668.30056	0.84
668.31266	-0.11
668.32477	6.74
668.33687	-3.11
668.34897	-3.91
668.36106	6.19
668.37315	14.34
668.38524	7.74
668.39733	4.09
668.40942	-6.86
668.4215	7.49
668.43358	2.84
668.44566	2.84
668.45774	5.99
668.46981	1.19
668.48188	7.29
668.49395	12.79
668.50602	17.64
668.51808	8.74
668.53014	5.24
668.5422	3.39
668.55425	3.69
668.56631	9.89
668.57836	2.99
668.59041	8.09
668.60246	1.89
668.6145	-3.01
668.62654	-0.41
668.63858	7.04
668.65062	8.64
668.66265	12.94
668.67468	1.59
668.68671	5.74
668.69874	19.89
668.71076	11.89
668.72278	7.59
668.7348	6.69
668.74682	2.14
668.75883	0.04
668.77085	-6.91
668.78286	-9.56
668.79486	4.34
668.80687	8.74
668.81887	4.89
668.83087	8.69
668.84287	-3.81
668.85486	13.49
668.86685	-4.86
668.87884	-3.01
668.89083	7.44
668.90282	9.94
668.9148	4.74
668.92678	1.94
668.93876	5.84
668.95073	8.39
668.9627	6.24
668.97468	3.59
668.98664	10.94
668.99861	13.19
669.01057	10.79
669.02253	10.34
669.03449	15.44
669.04645	4.69
669.0584	7.14
669.07035	4.59
669.0823	3.24
669.09424	-5.56
669.10619	-6.06
669.11813	6.99
669.13007	13.69
669.142	14.59
669.15393	16.04
669.16587	5.74
669.17779	-0.61
669.18972	-4.66
669.20164	-2.41
669.21356	6.99
669.22548	6.79
669.2374	7.99
669.24931	4.19
669.26123	-2.16
669.27313	7.34
669.28504	10.79
669.29694	3.54
669.30885	6.34
669.32074	9.99
669.33264	12.69
669.34454	-0.01
669.35643	-3.51
669.36832	-1.36
669.3802	4.94
669.39209	-4.61
669.40397	3.34
669.41585	-3.41
669.42773	-1.81
669.4396	-5.81
669.45147	-7.36
669.46334	-2.36
669.47521	5.14
669.48707	-2.01
669.49894	-2.81
669.5108	6.44
669.52265	6.29
669.53451	6.74
669.54636	-1.31
669.55821	4.44
669.57006	4.34
669.5819	-5.81
669.59375	-1.96
669.60559	2.59
669.61742	0.79
669.62926	0.79
669.64109	0.24
669.65292	6.44
669.66475	7.09
669.67658	0.89
669.6884	2.34
669.70022	4.34
669.71204	15.94
669.72385	5.19
669.73567	1.59
669.74748	3.39
669.75928	2.59
669.77109	6.39
669.78289	6.69
669.79469	7.04
669.80649	2.59
669.81829	-2.86
669.83008	9.29
669.84187	1.29
669.85366	-5.66
669.86545	0.44
669.87723	11.84
669.88901	15.04
669.90079	11.34
669.91257	5.19
669.92434	18.34
669.93611	24.09
669.94788	20.84
669.95965	9.34
669.97141	-0.76
669.98317	4.19
669.99493	6.69
670.00669	2.39
670.01844	8.04
670.0302	10.89
670.04194	2.99
670.05369	15.54
670.06544	-0.71
670.07718	4.44
670.08892	9.34
670.10065	5.04
670.11239	8.74
670.12412	11.09
670.13585	8.39
670.14758	-0.66
670.1593	-2.36
670.17103	24.89
670.18275	52.39
670.19446	8.44
670.20618	12.34
670.21789	8.89
670.2296	9.84
670.24131	-0.31
670.25301	11.69
670.26472	18.79
670.27642	15.44
670.28811	8.74
670.29981	6.79
670.3115	-0.26
670.32319	-1.91
670.33488	-4.96
670.34656	-0.86
670.35825	12.19
670.36993	13.49
670.38161	3.64
670.39328	-4.36
670.40496	4.29
670.41663	1.09
670.42829	8.39
670.43996	6.04
670.45162	8.89
670.46328	0.14
670.47494	-4.71
670.4866	1.59
670.49825	11.34
670.5099	7.34
670.52155	7.34
670.5332	11.09
670.54484	2.04
670.55648	-2.46
670.56812	13.94
670.57976	1.04
670.59139	0.64
670.60302	-1.36
670.61465	6.14
670.62628	4.84
670.6379	-1.91
670.64952	5.39
670.66114	0.54
670.67276	-9.56
670.68438	0.24
670.69599	10.69
670.7076	5.94
670.7192	9.99
670.73081	19.09
670.74241	17.34
670.75401	7.69
670.76561	12.39
670.7772	13.54
670.78879	3.59
670.80038	-1.56
670.81197	-2.66
670.82355	3.99
670.83514	9.09
670.84672	-2.61
670.85829	-3.21
670.86987	-2.06
670.88144	2.19
670.89301	-5.16
670.90458	-4.41
670.91614	-3.71
670.92771	4.09
670.93927	8.59
670.95083	8.74
670.96238	2.54
670.97393	-1.66
670.98548	-2.11
670.99703	-4.86
671.00858	-0.71
671.02012	1.54
671.03166	-7.16
671.0432	-6.76
671.05473	1.54
671.06627	6.59
671.0778	1.34
671.08933	3.24
671.10085	7.49
671.11238	9.94
671.1239	5.49
671.13542	9.64
671.14693	6.99
671.15845	2.69
671.16996	13.19
671.18147	15.99
671.19297	8.84
671.20448	12.99
671.21598	-0.81
671.22748	-0.51
671.23897	0.79
671.25047	0.09
671.26196	5.64
671.27345	-0.31
671.28493	-0.01
671.29642	-1.11
671.3079	3.24
671.31938	1.04
671.33085	-1.26
671.34233	7.14
671.3538	15.74
671.36527	7.09
671.37674	-4.86
671.3882	-8.26
671.39966	-9.41
671.41112	-0.91
671.42258	-4.36
671.43404	7.84
671.44549	13.34
671.45694	5.99
671.46838	8.54
671.47983	14.04
671.49127	4.19
671.50271	12.84
671.51415	9.49
671.52558	10.04
671.53702	10.94
671.54845	14.74
671.55987	7.34
671.5713	8.49
671.58272	4.29
671.59414	8.24
671.60556	24.49
671.61698	18.39
671.62839	4.99
671.6398	9.54
671.65121	2.89
671.66261	-4.31
671.67402	-6.01
671.68542	0.59
671.69681	-9.11
671.70821	-7.96
671.7196	2.64
671.73099	-5.01
671.74238	2.89
671.75377	1.69
671.76515	-0.56
671.77653	-0.41
671.78791	4.54
671.79929	16.84
671.81066	13.69
671.82203	15.04
671.8334	-0.96
671.84477	4.84
671.85613	9.04
671.86749	8.24
671.87885	14.29
671.89021	31.49
671.90156	6.34
671.91291	-4.41
671.92426	-8.06
671.93561	2.89
671.94695	0.94
671.9583	3.04
671.96963	13.94
671.98097	9.39
671.99231	9.19
672.00364	-5.26
672.01497	5.99
672.02629	5.89
672.03762	-1.51
672.04894	1.09
672.06026	-4.41
672.07158	-5.91
672.08289	-3.86
672.0942	-0.51
672.10551	15.69
672.11682	31.34
672.12813	13.34
672.13943	5.04
672.15073	-1.76
672.16203	-2.11
672.17332	-1.71
672.18461	1.64
672.1959	14.49
672.20719	12.94
672.21848	17.24
672.22976	17.69
672.24104	12.49
672.25232	6.04
672.26359	6.34
672.27487	3.19
672.28614	12.69
672.29741	13.49
672.30867	0.34
672.31993	1.19
672.33119	5.29
672.34245	3.79
672.35371	-7.06
672.36496	-0.11
672.37621	3.79
672.38746	-2.71
672.39871	-0.76
672.40995	2.19
672.42119	14.99
672.43243	24.39
672.44367	17.59
672.4549	2.24
672.46613	12.14
672.47736	8.14
672.48859	15.69
672.49981	6.99
672.51103	-2.86
672.52225	7.14
672.53347	5.44
672.54468	5.04
672.55589	12.74
672.5671	3.59
672.57831	4.24
672.58951	14.94
672.60072	9.29
672.61191	2.44
672.62311	5.39
672.63431	4.04
672.6455	7.14
672.65669	3.89
672.66787	1.59
672.67906	-0.96
672.69024	-2.96
672.70142	-4.01
672.7126	1.84
672.72377	-5.56
672.73494	-3.11
672.74611	3.69
672.75728	0.29
672.76845	3.34
672.77961	3.59
672.79077	0.84
672.80193	-1.71
672.81308	9.99
672.82423	8.09
672.83539	11.49
672.84653	4.14
672.85768	1.34
672.86882	1.39
672.87996	6.49
672.8911	-0.56
672.90223	6.24
672.91337	0.59
672.9245	-0.16
672.93563	1.69
672.94675	8.49
672.95788	14.09
672.969	-2.11
672.98011	5.64
672.99123	11.79
673.00234	5.89
673.01345	3.39
673.02456	-3.86
673.03567	2.34
673.04677	5.79
673.05787	-5.61
673.06897	0.19
673.08007	1.94
673.09116	4.49
673.10225	-3.56
673.11334	7.64
673.12443	16.39
673.13551	16.04
673.14659	12.89
673.15767	5.69
673.16875	7.09
673.17982	3.74
673.1909	-2.91
673.20196	3.39
673.21303	2.14
673.2241	6.79
673.23516	13.29
673.24622	9.69
673.25727	9.79
673.26833	7.04
673.27938	11.29
673.29043	8.29
673.30148	14.74
673.31252	9.24
673.32356	2.29
673.3346	-0.51
673.34564	6.54
673.35668	5.39
673.36771	-4.41
673.37874	4.64
673.38977	12.39
673.40079	17.19
673.41181	7.89
673.42283	12.64
673.43385	2.19
673.44487	8.04
673.45588	1.64
673.46689	-6.51
673.4779	10.59
673.4889	15.19
673.4999	4.24
673.51091	2.34
673.5219	7.14
673.5329	22.84
673.54389	14.29
673.55488	1.09
673.56587	9.74
673.57686	11.29
673.58784	4.89
673.59882	16.14
673.6098	5.59
673.62077	15.84
673.63175	32.34
673.64272	15.99
673.65369	2.29
673.66465	6.84
673.67562	1.89
673.68658	10.59
673.69754	-1.76
673.70849	9.59
673.71945	16.19
673.7304	21.54
673.74135	28.59
673.75229	22.64
673.76324	25.99
673.77418	3.69
673.78512	6.84
673.79605	5.29
673.80699	10.89
673.81792	3.29
673.82885	12.24
673.83978	17.69
673.8507	13.64
673.86162	6.34
673.87254	3.09
673.88346	15.34
673.89437	10.09
673.90529	11.79
673.9162	17.49
673.9271	8.14
673.93801	11.04
673.94891	1.49
673.95981	6.39
673.97071	3.54
673.9816	8.59
673.99249	8.39
674.00338	14.04
674.01427	5.59
674.02516	1.84
674.03604	-7.21
674.04692	-1.11
674.0578	7.99
674.06867	9.54
674.07954	11.09
674.09042	25.94
674.10128	1.49
674.11215	-7.91
674.12301	3.29
674.13387	4.49
674.14473	-2.06
674.15559	5.39
674.16644	3.54
674.17729	1.74
674.18814	3.29
674.19898	3.49
674.20983	-3.16
674.22067	-0.11
674.23151	2.09
674.24234	-3.76
674.25318	5.74
674.26401	19.29
674.27483	12.49
674.28566	-4.21
674.29648	-0.56
674.30731	0.99
674.31812	6.19
674.32894	7.94
674.33975	12.24
674.35057	10.04
674.36137	5.04
674.37218	10.74
674.38299	-6.36
674.39379	-6.96
674.40459	12.19
674.41538	12.04
674.42618	4.79
674.43697	1.34
674.44776	-0.51
674.45854	2.69
674.46933	7.34
674.48011	10.59
674.49089	0.24
674.50167	-0.56
674.51244	-2.71
674.52321	-9.16
674.53398	-14.16
674.54475	-6.01
674.55552	6.49
674.56628	4.59
674.57704	1.84
674.5878	8.09
674.59855	3.09
674.6093	6.09
674.62005	10.64
674.6308	9.94
674.64155	5.09
674.65229	5.09
674.66303	4.94
674.67377	13.69
674.6845	15.69
674.69523	22.14
674.70596	13.04
674.71669	4.14
674.72742	-3.46
674.73814	-7.21
674.74886	1.34
674.75958	-0.46
674.77029	5.84
674.78101	-3.16
674.79172	5.49
674.80243	10.74
674.81313	8.04
674.82384	19.24
674.83454	7.59
674.84524	-1.91
674.85593	-2.06
674.86663	6.54
674.87732	-0.51
674.888	2.04
674.89869	2.49
674.90937	7.69
674.92006	13.69
674.93073	13.29
674.94141	7.34
674.95208	7.54
674.96276	21.49
674.97343	15.39
674.98409	12.04
674.99476	15.89
675.00542	0.34
675.01608	1.34
675.02673	0.04
675.03739	1.74
675.04804	5.89
675.05869	14.59
675.06934	14.94
675.07998	16.94
675.09062	-6.31
675.10126	-5.26
675.1119	2.39
675.12253	17.14
675.13317	15.19
675.1438	11.84
675.15442	7.79
675.16505	3.04
675.17567	9.89
675.18629	15.94
675.19691	11.29
675.20752	9.64
675.21813	8.74
675.22874	7.64
675.23935	11.04
675.24996	8.74
675.26056	16.24
675.27116	11.54
675.28176	9.49
675.29235	10.59
675.30295	6.24
675.31354	4.79
675.32412	3.14
675.33471	-9.96
675.34529	-0.96
675.35587	1.94
675.36645	-7.86
675.37703	-7.06
675.3876	1.84
675.39817	3.04
675.40874	4.54
675.41931	7.49
675.42987	13.04
675.44043	9.09
675.45099	7.44
675.46154	10.74
675.4721	5.24
675.48265	9.04
675.4932	16.39
675.50374	9.79
675.51429	1.24
675.52483	0.39
675.53537	-4.11
675.5459	5.24
675.55644	11.89
675.56697	4.69
675.5775	1.94
675.58803	-2.71
675.59855	5.24
675.60907	4.09
675.61959	-0.56
675.63011	3.44
675.64062	-2.16
675.65113	1.19
675.66164	9.34
675.67215	2.34
675.68265	5.79
675.69316	5.84
675.70366	3.04
675.71415	18.04
675.72465	22.09
675.73514	15.64
675.74563	16.84
675.75612	6.19
675.7666	1.49
675.77708	7.69
675.78756	9.34
675.79804	1.54
675.80852	16.49
675.81899	23.39
675.82946	10.09
675.83993	11.54
675.85039	14.24
675.86085	12.74
675.87131	17.64
675.88177	13.29
675.89223	11.84
675.90268	15.64
675.91313	12.19
675.92358	8.49
675.93402	3.84
675.94447	8.94
675.95491	13.44
675.96535	3.89
675.97578	10.94
675.98622	20.14
675.99665	-0.06
676.00707	7.04
676.0175	11.59
676.02792	13.24
676.03835	5.89
676.04876	6.49
676.05918	2.79
676.06959	7.04
676.08	19.64
676.09041	13.34
676.10082	-0.16
676.11122	7.74
676.12162	42.64
676.13202	81.44
676.14242	20.29
676.15281	4.84
676.16321	-2.21
676.17359	1.94
676.18398	-7.11
676.19437	5.84
676.20475	0.64
676.21513	-1.61
676.2255	3.84
676.23588	16.04
676.24625	15.44
676.25662	2.19
676.26699	-3.41
676.27735	2.19
676.28771	19.34
676.29807	9.99
676.30843	9.69
676.31878	3.79
676.32914	9.14
676.33949	11.94
676.34983	12.19
676.36018	7.19
676.37052	1.79
676.38086	-4.11
676.3912	-4.66
676.40153	5.44
676.41187	14.34
676.4222	6.19
676.43252	10.44
676.44285	22.09
676.45317	10.09
676.46349	-2.46
676.47381	7.94
676.48413	12.44
676.49444	9.09
676.50475	10.99
676.51506	8.19
676.52536	17.44
676.53567	7.99
676.54597	10.69
676.55626	14.59
676.56656	6.79
676.57685	3.79
676.58714	12.79
676.59743	10.84
676.60772	7.24
676.618	3.84
676.62828	6.69
676.63856	-4.11
676.64884	-2.51
676.65911	0.04
676.66938	-4.31
676.67965	5.59
676.68992	18.24
676.70018	13.99
676.71044	5.79
676.7207	24.44
676.73096	20.24
676.74121	12.39
676.75146	12.24
676.76171	17.54
676.77196	3.49
676.7822	-0.71
676.79245	5.19
676.80269	11.64
676.81292	-3.31
676.82316	-2.66
676.83339	14.14
676.84362	23.54
676.85385	2.19
676.86407	8.84
676.87429	3.44
676.88451	14.29
676.89473	12.14
676.90494	-13.31
676.91516	-7.16
676.92537	0.04
676.93557	9.79
676.94578	6.04
676.95598	-1.01
676.96618	-6.11
676.97638	-0.76
676.98657	1.64
676.99677	1.19
677.00696	7.59
677.01714	16.54
677.02733	11.54
677.03751	5.49
677.04769	2.54
677.05787	0.14
677.06805	7.74
677.07822	3.64
677.08839	7.99
677.09856	-0.71
677.10872	-0.26
677.11889	4.74
677.12905	11.14
677.13921	9.39
677.14936	-1.11
677.15951	-0.01
677.16967	4.54
677.17981	11.49
677.18996	12.34
677.2001	-0.41
677.21025	-4.86
677.22038	2.89
677.23052	3.69
677.24065	-0.71
677.25078	5.39
677.26091	14.54
677.27104	11.89
677.28116	3.99
677.29129	7.19
677.3014	5.84
677.31152	24.24
677.32164	62.69
677.33175	3.69
677.34186	3.84
677.35196	6.74
677.36207	10.74
677.37217	12.39
677.38227	16.89
677.39236	9.24
677.40246	-1.31
677.41255	-4.91
677.42264	2.64
677.43273	8.24
677.44281	7.34
677.45289	16.24
677.46297	2.04
677.47305	-5.76
677.48313	-3.46
677.4932	6.99
677.50327	2.14
677.51334	2.69
677.5234	5.39
677.53346	12.69
677.54352	9.99
677.55358	10.84
677.56364	9.84
677.57369	22.39
677.58374	7.09
677.59379	-6.91
677.60383	-3.31
677.61388	2.84
677.62392	6.04
677.63395	5.99
677.64399	11.14
677.65402	15.39
677.66405	7.39
677.67408	-0.86
677.68411	0.59
677.69413	8.14
677.70415	7.49
677.71417	9.49
677.72419	0.39
677.7342	5.74
677.74421	-0.06
677.75422	-3.21
677.76422	-0.11
677.77423	5.54
677.78423	13.29
677.79423	7.99
677.80422	10.14
677.81422	9.44
677.82421	0.69
677.8342	6.59
677.84418	2.34
677.85417	5.94
677.86415	14.89
677.87413	3.04
677.88411	-3.76
677.89408	12.14
677.90405	13.09
677.91402	12.89
677.92399	14.79
677.93395	24.29
677.94391	14.14
677.95387	-2.21
677.96383	0.99
677.97378	7.84
677.98374	3.79
677.99369	6.69
678.00363	17.49
678.01358	1.84
678.02352	0.99
678.03346	10.19
678.0434	3.44
678.05333	-0.11
678.06326	4.84
678.07319	7.69
678.08312	5.34
678.09305	18.34
678.10297	8.29
678.11289	-3.06
678.12281	4.49
678.13272	2.49
678.14264	-2.76
678.15255	3.09
678.16245	2.79
678.17236	1.09
678.18226	1.14
678.19216	-0.31
678.20206	-6.31
678.21196	0.49
678.22185	11.79
678.23174	15.29
678.24163	11.89
678.25151	11.14
678.2614	19.34
678.27128	18.74
678.28116	10.24
678.29103	12.54
678.30091	4.89
678.31078	-2.61
678.32065	-1.11
678.33051	5.74
678.34037	2.29
678.35024	-4.06
678.36009	1.69
678.36995	-0.96
678.37981	3.49
678.38966	-2.61
678.39951	-0.11
678.40935	2.54
678.4192	1.84
678.42904	-3.66
678.43888	5.09
678.44871	3.99
678.45855	8.99
678.46838	11.84
678.47821	-1.46
678.48804	0.34
678.49786	22.04
678.50768	26.49
678.5175	12.49
678.52732	15.29
678.53713	10.54
678.54694	6.59
678.55675	-4.16
678.56656	-4.81
678.57637	-2.56
678.58617	1.54
678.59597	13.04
678.60577	7.84
678.61556	-5.76
678.62535	7.34
678.63514	20.34
678.64493	12.29
678.65472	2.34
678.6645	14.54
678.67428	9.69
678.68406	10.04
678.69383	4.39
678.7036	4.49
678.71337	8.29
678.72314	11.79
678.73291	9.29
678.74267	2.34
678.75243	1.89
678.76219	-1.71
678.77195	4.29
678.7817	2.09
678.79145	4.09
678.8012	9.59
678.81094	-0.46
678.82069	1.34
678.83043	36.19
678.84017	66.44
678.8499	3.04
678.85964	4.19
678.86937	6.69
678.87909	13.09
678.88882	11.59
678.89854	1.79
678.90827	3.59
678.91798	2.59
678.9277	4.24
678.93742	-4.56
678.94713	2.89
678.95684	2.04
678.96654	7.29
678.97625	5.69
678.98595	8.24
678.99565	-0.91
679.00534	-6.66
679.01504	-3.56
679.02473	-3.06
679.03442	-1.21
679.04411	8.24
679.05379	6.89
679.06347	-1.36
679.07315	0.74
679.08283	2.49
679.0925	1.44
679.10218	9.24
679.11185	-0.06
679.12151	3.39
679.13118	6.64
679.14084	-2.06
679.1505	1.24
679.16016	0.49
679.16981	-3.61
679.17946	10.04
679.18911	9.89
679.19876	-3.01
679.20841	10.99
679.21805	14.84
679.22769	8.59
679.23733	9.39
679.24696	16.89
679.2566	7.84
679.26623	4.59
679.27585	5.64
679.28548	-5.16
679.2951	5.44
679.30472	-2.56
679.31434	-3.81
679.32396	0.09
679.33357	-3.26
679.34318	14.89
679.35279	28.74
679.3624	6.14
679.372	8.74
679.3816	11.94
679.3912	4.29
679.40079	27.04
679.41039	16.89
679.41998	5.79
679.42957	4.69
679.43915	-2.26
679.44874	6.49
679.45832	17.59
679.4679	5.34
679.47747	-5.46
679.48705	-5.81
679.49662	8.19
679.50619	10.54
679.51575	0.89
679.52532	5.64
679.53488	13.34
679.54444	6.79
679.554	2.89
679.56355	3.39
679.5731	8.24
679.58265	2.54
679.5922	0.44
679.60174	12.54
679.61129	13.54
679.62083	1.84
679.63036	-8.56
679.6399	-1.06
679.64943	13.54
679.65896	9.19
679.66849	0.64
679.67801	6.84
679.68753	13.04
679.69705	20.39
679.70657	25.89
679.71609	20.34
679.7256	17.24
679.73511	11.54
679.74462	-1.01
679.75412	-0.81
679.76362	12.74
679.77312	9.99
679.78262	1.99
679.79212	5.19
679.80161	8.94
679.8111	0.29
679.82059	-0.31
679.83007	9.84
679.83956	10.84
679.84904	5.64
679.85852	12.39
679.86799	-0.36
679.87747	4.34
679.88694	1.44
679.8964	2.29
679.90587	1.39
679.91533	8.29
679.92479	6.94
679.93425	4.99
679.94371	17.44
679.95316	14.59
679.96261	12.29
679.97206	8.19
679.98151	2.64
679.99095	0.64
680.00039	-1.11
680.00983	-0.01
680.01927	7.44
680.0287	0.74
680.03814	17.49
680.04756	6.64
680.05699	2.49
680.06641	5.54
680.07584	1.84
680.08526	-6.46
680.09467	2.59
680.10409	1.49
680.1135	-5.46
680.12291	0.84
680.13232	11.89
680.14172	19.64
680.15112	10.44
680.16052	2.14
680.16992	4.84
680.17931	9.94
680.18871	12.24
680.1981	-1.61
680.20748	-4.11
680.21687	-0.41
