Data from HR4C25001_14-22-18-299.txt Node
Date: Mon Jun 15 14:22:18 CDT 2026
User: jam28248
Spectrometer: HR4C2500
Trigger mode: 4
Integration Time (sec): 7.500000E-2
Scans to average: 20
Electric dark correction enabled: true
Nonlinearity correction enabled: false
Boxcar width: 0
XAxis mode: Wavelengths
Number of Pixels in Spectrum: 3648
>>>>>Begin Spectral Data<<<<<
629.66646	-20.7
629.6848	-20.7
629.70313	-20.7
629.72147	-49.9
629.7398	-35.65
629.75812	-2.6
629.77645	2
629.79477	5.15
629.81309	-2.1
629.83141	-7.05
629.84972	6.5
629.86803	2.05
629.88634	10.1
629.90465	-10.3
629.92295	-6.75
629.94126	-3.1
629.95956	3.45
629.97785	2.6
629.99615	-3.2
630.01444	17.2
630.03273	13.8
630.05102	15.8
630.0693	7.4
630.08759	13.55
630.10587	0.55
630.12415	-0.1
630.14242	-0.05
630.16069	-8.5
630.17896	-2.65
630.19723	6.2
630.2155	21.75
630.23376	68.6
630.25202	26.6
630.27028	20.7
630.28854	12.35
630.30679	3.9
630.32504	3.8
630.34329	6.15
630.36153	11.6
630.37978	22.65
630.39802	11.3
630.41626	2.3
630.43449	-4.8
630.45273	3.6
630.47096	12.35
630.48919	5.8
630.50741	15.15
630.52564	5.65
630.54386	11.3
630.56208	20.15
630.58029	7.3
630.59851	6.05
630.61672	6.55
630.63493	17.4
630.65313	11.75
630.67134	11.85
630.68954	6.1
630.70774	15.9
630.72594	18.3
630.74413	4.8
630.76232	-5.65
630.78051	-2.5
630.7987	5
630.81688	9
630.83507	21.8
630.85325	14.1
630.87142	8.15
630.8896	6
630.90777	-1.05
630.92594	-7.25
630.94411	15.1
630.96227	25.85
630.98043	39.05
630.99859	13.65
631.01675	5.65
631.03491	2.3
631.05306	-3.85
631.07121	10.15
631.08936	13.25
631.1075	4
631.12564	10.9
631.14379	12.3
631.16192	15.4
631.18006	9.3
631.19819	10.35
631.21632	11.15
631.23445	-2.65
631.25258	2.2
631.2707	8.35
631.28882	5.45
631.30694	9.8
631.32505	7.1
631.34317	13.2
631.36128	5.4
631.37939	12.55
631.39749	7.5
631.4156	5.2
631.4337	1.6
631.4518	8.55
631.46989	-3.7
631.48799	-0.45
631.50608	1.15
631.52417	-5.7
631.54225	4.05
631.56034	5
631.57842	5.8
631.5965	5.2
631.61457	-10.25
631.63265	-5.75
631.65072	5.55
631.66879	0.65
631.68685	13.4
631.70492	22.95
631.72298	19.4
631.74104	5.85
631.7591	5.05
631.77715	5.2
631.7952	12.2
631.81325	10.9
631.8313	1.8
631.84934	12.85
631.86739	17.35
631.88543	5.95
631.90346	6.75
631.9215	2.25
631.93953	9.35
631.95756	6.25
631.97559	7.25
631.99361	-2.45
632.01163	-4.45
632.02965	7.55
632.04767	14.65
632.06569	17.2
632.0837	6.35
632.10171	-1.85
632.11972	-2.35
632.13772	6.4
632.15573	15.95
632.17373	5.55
632.19172	-1.95
632.20972	2.95
632.22771	-5.5
632.2457	-0.95
632.26369	5.75
632.28168	13.3
632.29966	2.65
632.31764	9.3
632.33562	5.3
632.35359	7.55
632.37157	5.8
632.38954	2.75
632.40751	0.7
632.42547	-6.9
632.44344	15
632.4614	7.6
632.47936	-0.2
632.49731	-0.5
632.51527	2.15
632.53322	11.85
632.55117	8.3
632.56911	3.35
632.58706	-0.35
632.605	3.8
632.62294	5.4
632.64087	9.3
632.65881	-5.35
632.67674	2.35
632.69467	-0.75
632.7126	-0.25
632.73052	9.2
632.74844	7.75
632.76636	12.55
632.78428	19.45
632.80219	25.1
632.8201	26.45
632.83801	4.5
632.85592	1.9
632.87383	16.3
632.89173	5.9
632.90963	2.4
632.92753	8.3
632.94542	6
632.96331	8.15
632.9812	8.55
632.99909	5.4
633.01697	5.3
633.03486	6.85
633.05274	1
633.07061	7.4
633.08849	6.85
633.10636	13.4
633.12423	20.55
633.1421	6.5
633.15997	20.7
633.17783	7.9
633.19569	11.35
633.21355	12.35
633.2314	15.75
633.24926	-1.6
633.26711	1.05
633.28495	7.05
633.3028	-2.45
633.32064	3.95
633.33848	13.35
633.35632	22.45
633.37416	19.1
633.39199	7.4
633.40982	1.25
633.42765	7.1
633.44548	4.55
633.4633	-5.7
633.48112	-1.4
633.49894	-2.2
633.51676	7.4
633.53457	3.3
633.55238	8.75
633.57019	1.45
633.588	-4.8
633.6058	-5.25
633.6236	5.1
633.6414	8.2
633.6592	-0.2
633.67699	-8.75
633.69478	0.35
633.71257	17
633.73036	19.2
633.74815	0.95
633.76593	1.8
633.78371	7.4
633.80148	1.2
633.81926	-2.55
633.83703	1.9
633.8548	-12.3
633.87257	-12.7
633.89033	-7.65
633.90809	6.95
633.92585	8.2
633.94361	-0.2
633.96137	4.8
633.97912	8.2
633.99687	-12.5
634.01462	7.4
634.03236	16.8
634.0501	14.6
634.06784	-5.15
634.08558	12.9
634.10332	13.9
634.12105	6.1
634.13878	13.1
634.15651	14.5
634.17423	6.15
634.19196	0.85
634.20968	3.25
634.22739	12.55
634.24511	12.75
634.26282	13.3
634.28053	19.35
634.29824	5.95
634.31595	7.7
634.33365	4.6
634.35135	-7.1
634.36905	-8.35
634.38675	5.2
634.40444	7.3
634.42213	1.95
634.43982	2.7
634.4575	-3.65
634.47519	12.35
634.49287	21.8
634.51055	-0.25
634.52822	1.1
634.5459	4.2
634.56357	2.85
634.58124	-11.7
634.59891	3.45
634.61657	10.05
634.63423	16.5
634.65189	19.1
634.66955	4.15
634.6872	13
634.70485	5.3
634.7225	2
634.74015	10.45
634.75779	2.75
634.77544	1.4
634.79307	0.8
634.81071	14.2
634.82835	7.6
634.84598	0.15
634.86361	-2.6
634.88123	10.55
634.89886	5.1
634.91648	-0.35
634.9341	0.4
634.95172	9.4
634.96933	7.9
634.98695	15.75
635.00456	3.85
635.02216	8.4
635.03977	9
635.05737	6.9
635.07497	5.35
635.09257	5.95
635.11016	11.4
635.12776	9.25
635.14535	3.3
635.16294	15.6
635.18052	6.35
635.1981	8.1
635.21569	10.4
635.23326	2.7
635.25084	9.6
635.26841	4.1
635.28598	5.9
635.30355	0.05
635.32112	-6.2
635.33868	-11.8
635.35624	-4.4
635.3738	3.4
635.39136	-3.3
635.40891	-4.35
635.42646	5.1
635.44401	5.75
635.46155	-1.2
635.4791	0.1
635.49664	5.2
635.51418	12.55
635.53171	1.9
635.54925	1.4
635.56678	4.3
635.58431	7.9
635.60184	23.1
635.61936	20.95
635.63688	-0.15
635.6544	4.35
635.67192	-0.65
635.68943	5.7
635.70694	5.95
635.72445	6.35
635.74196	-6.3
635.75946	-5.4
635.77697	-3.15
635.79447	2.05
635.81196	14.25
635.82946	3.4
635.84695	-2.3
635.86444	8.15
635.88193	5.2
635.89941	11.7
635.91689	2.4
635.93437	-1.7
635.95185	-3.4
635.96933	-1.7
635.9868	13.55
636.00427	28.95
636.02174	9.3
636.0392	1.9
636.05666	19.25
636.07412	6.95
636.09158	4.15
636.10904	0
636.12649	1.95
636.14394	3.4
636.16139	15.95
636.17883	4.65
636.19628	1.3
636.21372	-5.45
636.23116	-0.05
636.24859	-4.25
636.26602	1.35
636.28345	5.2
636.30088	6.3
636.31831	0.2
636.33573	-2.6
636.35315	4.65
636.37057	7.7
636.38799	4.3
636.4054	12.5
636.42281	13.15
636.44022	5.2
636.45763	-6.25
636.47503	-6.35
636.49243	-8.65
636.50983	-8.35
636.52723	-1.5
636.54462	-1.95
636.56201	0.7
636.5794	-6.8
636.59679	-5.9
636.61417	3.05
636.63155	0.1
636.64893	15.4
636.66631	12.25
636.68368	-1.3
636.70106	-7.75
636.71843	-10.75
636.73579	-4.35
636.75316	6.9
636.77052	5.5
636.78788	9.6
636.80524	2.55
636.82259	-6.9
636.83994	-7
636.85729	-7.45
636.87464	-9.55
636.89198	-5.7
636.90933	14
636.92667	9.65
636.944	2.45
636.96134	-7.65
636.97867	-3.4
636.996	4.35
637.01333	7.8
637.03066	1.85
637.04798	-11.95
637.0653	-1.9
637.08262	2.6
637.09993	-3.4
637.11724	-5
637.13455	6.65
637.15186	13.55
637.16917	7.85
637.18647	3.7
637.20377	8.05
637.22107	2.1
637.23837	6.65
637.25566	26.35
637.27295	6.9
637.29024	10.75
637.30752	-2.6
637.32481	-1.9
637.34209	4.35
637.35937	15.15
637.37664	8.1
637.39392	8.5
637.41119	0.55
637.42846	5.3
637.44572	-5.45
637.46299	3.3
637.48025	21.55
637.49751	6.65
637.51476	-3.15
637.53202	5.95
637.54927	-0.8
637.56652	0.25
637.58376	2.3
637.60101	0.4
637.61825	5.3
637.63549	6.65
637.65273	3.2
637.66996	3
637.68719	3.3
637.70442	-0.2
637.72165	5.45
637.73887	4.65
637.7561	11.35
637.77332	6.65
637.79053	-2.05
637.80775	5.85
637.82496	2.45
637.84217	3
637.85938	0.75
637.87658	5.1
637.89378	5.1
637.91098	-1.7
637.92818	-4.5
637.94538	7.4
637.96257	12.6
637.97976	7.35
637.99695	0.85
638.01413	-11.45
638.03132	-3.65
638.0485	2.55
638.06567	-8.25
638.08285	2.5
638.10002	-0.55
638.11719	-0.4
638.13436	1.25
638.15153	2.95
638.16869	-7.75
638.18585	-3.1
638.20301	-5.55
638.22016	-13
638.23732	-16.05
638.25447	-11.75
638.27162	-7.15
638.28876	-6.5
638.30591	-7.35
638.32305	0.9
638.34019	7.55
638.35732	12.4
638.37446	16.95
638.39159	-2.25
638.40872	-8.75
638.42584	-3.45
638.44297	-0.35
638.46009	-2.95
638.47721	2.25
638.49432	11.55
638.51144	7.45
638.52855	3.3
638.54566	-5.1
638.56276	-1.1
638.57987	3.3
638.59697	3.55
638.61407	1.25
638.63117	-1.1
638.64826	3.75
638.66535	2.45
638.68244	1.1
638.69953	6.85
638.71661	9.65
638.7337	-0.5
638.75078	1.55
638.76785	2.25
638.78493	-2
638.802	-7.3
638.81907	2.6
638.83614	4.5
638.8532	9.55
638.87026	-0.6
638.88732	-8.35
638.90438	-2.5
638.92144	7.25
638.93849	12.95
638.95554	8.3
638.97259	2
638.98963	6.95
639.00668	13.5
639.02372	8.35
639.04075	10.35
639.05779	9.45
639.07482	6.4
639.09185	9.65
639.10888	-9.75
639.12591	-13.05
639.14293	-4.3
639.15995	-2.85
639.17697	17.9
639.19398	19.85
639.211	26.9
639.22801	15.4
639.24502	1
639.26202	-0.4
639.27903	-0.75
639.29603	5.9
639.31303	16.35
639.33002	-0.7
639.34702	4.25
639.36401	2.65
639.381	4.9
639.39798	6.55
639.41497	9.1
639.43195	14.1
639.44893	2.65
639.4659	9.1
639.48288	10.35
639.49985	11.85
639.51682	0.35
639.53379	-9.9
639.55075	-9.5
639.56771	-12.05
639.58467	-5.5
639.60163	2.6
639.61858	2.65
639.63553	3.75
639.65248	2.25
639.66943	-5.2
639.68638	0.1
639.70332	5.9
639.72026	9.9
639.73719	3.65
639.75413	10.8
639.77106	22.65
639.78799	34.25
639.80492	25.25
639.82184	5.6
639.83877	0.05
639.85569	6.1
639.8726	3.5
639.88952	6.5
639.90643	-8.1
639.92334	3.7
639.94025	5.45
639.95716	5.65
639.97406	5.3
639.99096	10.75
640.00786	2.25
640.02475	1.7
640.04165	0.95
640.05854	1
640.07542	-0.5
640.09231	6.75
640.10919	7.7
640.12607	8.45
640.14295	-5.15
640.15983	-1.05
640.1767	2.7
640.19357	-1.8
640.21044	-3.45
640.22731	6.3
640.24417	8.75
640.26103	11.4
640.27789	13.95
640.29475	0.55
640.3116	-11.6
640.32845	-5.3
640.3453	3.95
640.36215	-2.25
640.37899	0.9
640.39583	17.6
640.41267	19.95
640.42951	1
640.44634	-10.35
640.46317	0.6
640.48	1.15
640.49683	-7.7
640.51365	-9
640.53048	0.05
640.5473	4.6
640.56411	0.8
640.58093	9.3
640.59774	12.3
640.61455	-1.1
640.63136	0.95
640.64816	-0.1
640.66496	0.75
640.68176	8.15
640.69856	-5.7
640.71535	-2.1
640.73215	1
640.74894	2.1
640.76572	12.85
640.78251	10.05
640.79929	6.35
640.81607	7.4
640.83285	5.65
640.84963	10.55
640.8664	13.95
640.88317	23.25
640.89994	4.45
640.9167	2.05
640.93346	-1
640.95022	-2.25
640.96698	0.65
640.98374	-2.15
641.00049	-4.55
641.01724	-3.25
641.03399	-7.45
641.05074	-4.8
641.06748	-5.5
641.08422	6.95
641.10096	1.5
641.11769	8.7
641.13443	4.6
641.15116	-0.95
641.16789	1.1
641.18461	-2.65
641.20134	17.7
641.21806	15.05
641.23478	0
641.25149	2.25
641.26821	9.85
641.28492	3.75
641.30163	6.05
641.31833	-2.25
641.33504	0.6
641.35174	-0.95
641.36844	8.4
641.38514	7.1
641.40183	5.05
641.41852	6.15
641.43521	4.6
641.4519	26.2
641.46858	15.9
641.48526	2.45
641.50194	4.65
641.51862	-2.65
641.53529	-3.2
641.55197	15.2
641.56864	17.25
641.5853	1.05
641.60197	3.45
641.61863	7.25
641.63529	-2.7
641.65195	-3.05
641.6686	8.1
641.68526	12.55
641.70191	12.75
641.71855	20.6
641.7352	15.2
641.75184	5.3
641.76848	2.2
641.78512	1.6
641.80175	1.35
641.81839	12.8
641.83502	16.8
641.85164	11.9
641.86827	15.3
641.88489	7.75
641.90151	-2.9
641.91813	-0.45
641.93475	10.35
641.95136	4.55
641.96797	-4.55
641.98458	-14.25
642.00119	3.95
642.01779	6.05
642.03439	4.45
642.05099	1.35
642.06758	-9.65
642.08418	-2.95
642.10077	0.85
642.11736	6.5
642.13394	2
642.15053	3
642.16711	-2.55
642.18369	-8.25
642.20026	7.8
642.21684	15.7
642.23341	18.05
642.24998	13.85
642.26654	15.7
642.28311	13.45
642.29967	1.4
642.31623	-8.15
642.33279	0.7
642.34934	-1.3
642.36589	-7.95
642.38244	-13
642.39899	49.15
642.41553	121.55
642.43207	16.85
642.44861	-12.05
642.46515	-1.85
642.48169	6.2
642.49822	-0.15
642.51475	4.65
642.53127	-4.45
642.5478	0.25
642.56432	8.45
642.58084	9.75
642.59736	3.2
642.61387	6.65
642.63039	14.2
642.6469	13.95
642.6634	21
642.67991	3.25
642.69641	3.45
642.71291	-1.2
642.72941	8.1
642.74591	13.1
642.7624	-0.05
642.77889	0.5
642.79538	-4.3
642.81186	-6.65
642.82834	-10.1
642.84483	-5.7
642.8613	0.95
642.87778	-4.55
642.89425	11.5
642.91072	37.7
642.92719	3.5
642.94366	3.15
642.96012	14.8
642.97658	5.25
642.99304	3.4
643.0095	9.05
643.02595	-1.1
643.0424	-2.05
643.05885	3.9
643.0753	-7.6
643.09174	-8.15
643.10818	-5.75
643.12462	-7.15
643.14106	-0.25
643.15749	-0.3
643.17392	5.95
643.19035	25.3
643.20678	19.75
643.2232	0.65
643.23962	7.4
643.25604	2.3
643.27246	-6
643.28887	-0.9
643.30528	7.05
643.32169	13.8
643.3381	3.8
643.35451	4.95
643.37091	12.95
643.38731	5.65
643.4037	-3
643.4201	-1.75
643.43649	7.45
643.45288	16.75
643.46927	11.15
643.48565	1.65
643.50204	10.85
643.51842	7.8
643.53479	-2.65
643.55117	8.15
643.56754	4.4
643.58391	7.2
643.60028	2.6
643.61664	4.65
643.63301	9.6
643.64937	8.3
643.66572	3.7
643.68208	-1.75
643.69843	4.5
643.71478	-4.6
643.73113	0.45
643.74748	-2.7
643.76382	5.35
643.78016	3.45
643.7965	4.85
643.81283	9.55
643.82917	13.05
643.8455	-0.65
643.86183	13.6
643.87815	17.05
643.89448	12.4
643.9108	9.95
643.92712	6.5
643.94343	9.65
643.95974	-5.8
643.97606	-9.2
643.99236	4.3
644.00867	12.75
644.02497	4.6
644.04128	2.2
644.05758	8.15
644.07387	12.6
644.09017	6.15
644.10646	7
644.12275	6.1
644.13903	2.8
644.15532	2
644.1716	1.4
644.18788	23.55
644.20415	9.6
644.22043	8.15
644.2367	9.25
644.25297	2.2
644.26924	8.3
644.2855	9.05
644.30176	4.65
644.31802	-0.15
644.33428	14.65
644.35054	21.7
644.36679	4.2
644.38304	7.35
644.39928	9.65
644.41553	12.7
644.43177	2.95
644.44801	-4.35
644.46425	-3.6
644.48048	3.1
644.49672	6.65
644.51295	6.45
644.52917	7.7
644.5454	15.65
644.56162	5.45
644.57784	8.55
644.59406	6.4
644.61028	9.95
644.62649	4.6
644.6427	8.5
644.65891	0.1
644.67511	-6.45
644.69132	1.65
644.70752	4.95
644.72372	8.95
644.73991	6.7
644.7561	9.3
644.7723	15.5
644.78848	22.9
644.80467	14
644.82085	6.6
644.83703	11.95
644.85321	19.2
644.86939	13.45
644.88556	12.7
644.90173	22
644.9179	24.25
644.93407	16.15
644.95023	25.15
644.96639	10.3
644.98255	11.35
644.99871	8.5
645.01486	6.9
645.03102	16.85
645.04716	18.2
645.06331	17
645.07946	40.95
645.0956	75.3
645.11174	17.55
645.12787	21.9
645.14401	12.8
645.16014	17.65
645.17627	15.3
645.1924	7.9
645.20852	18.95
645.22464	15.05
645.24076	25.35
645.25688	31
645.27299	16.75
645.28911	16.1
645.30522	3.5
645.32132	8.65
645.33743	14.35
645.35353	15.8
645.36963	6.35
645.38573	11.55
645.40182	13
645.41792	6.65
645.43401	0.3
645.45009	7.5
645.46618	13.4
645.48226	5.25
645.49834	6.25
645.51442	-5.15
645.5305	2.65
645.54657	7.15
645.56264	11.45
645.57871	5.75
645.59477	11.5
645.61084	7.2
645.6269	15.6
645.64296	18
645.65901	16.5
645.67507	14.6
645.69112	7.4
645.70716	2.75
645.72321	3.2
645.73925	10.5
645.7553	7.45
645.77133	-0.95
645.78737	4.95
645.8034	16.75
645.81944	26
645.83546	7.3
645.85149	28.15
645.86751	13.85
645.88354	1.5
645.89955	3.15
645.91557	3.8
645.93159	-2.95
645.9476	2.75
645.96361	3.3
645.97961	10.5
645.99562	12.75
646.01162	13.8
646.02762	7.8
646.04361	5.8
646.05961	0.8
646.0756	-1.25
646.09159	8.75
646.10758	0.7
646.12356	8.05
646.13954	12.1
646.15552	10.6
646.1715	17
646.18748	11.05
646.20345	5.8
646.21942	-1.25
646.23539	15.7
646.25135	22.65
646.26731	2.1
646.28327	11.8
646.29923	8.2
646.31519	21
646.33114	20.3
646.34709	13
646.36304	4.6
646.37898	-3
646.39493	-6.85
646.41087	-3.65
646.4268	-1.25
646.44274	0.85
646.45867	-0.45
646.4746	11.45
646.49053	6.55
646.50646	0.55
646.52238	-10.15
646.5383	-1.3
646.55422	-3.2
646.57014	1.75
646.58605	-2.35
646.60196	7.1
646.61787	4.4
646.63377	6.65
646.64968	7.5
646.66558	0.55
646.68148	-6.5
646.69737	6.75
646.71327	4.45
646.72916	0.7
646.74505	3.3
646.76093	10.9
646.77682	11.8
646.7927	0.75
646.80858	0.65
646.82446	-9.3
646.84033	-1
646.8562	-0.7
646.87207	1.35
646.88794	7.85
646.9038	-4.6
646.91966	2.05
646.93552	3.6
646.95138	-0.75
646.96723	6.8
646.98309	19.25
646.99894	8
647.01478	4.15
647.03063	17.4
647.04647	1.15
647.06231	-3.65
647.07815	-4.6
647.09398	-2.3
647.10981	2.15
647.12564	-5.1
647.14147	3.55
647.1573	16.4
647.17312	4.5
647.18894	2.85
647.20476	-10.1
647.22057	-11.45
647.23638	1.6
647.25219	2.9
647.268	-2.9
647.28381	-0.65
647.29961	8.85
647.31541	3.8
647.33121	1
647.34701	8.55
647.3628	1.45
647.37859	10.05
647.39438	5.4
647.41016	5.9
647.42595	5.7
647.44173	5.6
647.45751	4.55
647.47328	6.4
647.48905	5.95
647.50483	13.25
647.52059	4.8
647.53636	1.1
647.55212	-3
647.56789	10.6
647.58364	40.25
647.5994	6.85
647.61515	-2.7
647.63091	3.9
647.64665	4.05
647.6624	3.65
647.67814	-1.8
647.69389	-3.95
647.70963	-2
647.72536	-13.65
647.7411	-11.05
647.75683	-3.3
647.77256	4.85
647.78828	3.85
647.80401	-2
647.81973	0.35
647.83545	5.25
647.85117	8
647.86688	2.1
647.88259	-5.05
647.8983	2.4
647.91401	12.45
647.92971	12.35
647.94542	-0.7
647.96112	5.55
647.97681	12.65
647.99251	5.4
648.0082	8.85
648.02389	9.65
648.03958	3.3
648.05526	4.25
648.07095	-0.2
648.08663	-1.9
648.1023	-7.45
648.11798	-5.7
648.13365	-7.7
648.14932	1.5
648.16499	3.5
648.18066	2.75
648.19632	-1.6
648.21198	-0.3
648.22764	3.15
648.24329	5.25
648.25895	14.6
648.2746	0.65
648.29025	-1.1
648.30589	8.45
648.32153	6.95
648.33718	-1.75
648.35281	10.75
648.36845	36.1
648.38408	68.75
648.39971	4.65
648.41534	-3.75
648.43097	3.65
648.44659	7.85
648.46221	15.7
648.47783	10.75
648.49345	-3.55
648.50906	5.35
648.52467	10.15
648.54028	-2.45
648.55589	-4.1
648.57149	10.35
648.5871	3.8
648.6027	-0.35
648.61829	7.7
648.63389	4.75
648.64948	5.8
648.66507	5.6
648.68065	-1.6
648.69624	8
648.71182	24.05
648.7274	23.4
648.74298	17.6
648.75855	25.7
648.77412	20.7
648.78969	2
648.80526	-9.1
648.82083	-1.65
648.83639	6.6
648.85195	-3.9
648.8675	0.35
648.88306	5.6
648.89861	1.15
648.91416	-0.95
648.92971	6.1
648.94526	15.55
648.9608	18.05
648.97634	12.35
648.99188	7.5
649.00741	6.2
649.02294	4.25
649.03847	4.2
649.054	-4.5
649.06953	7.1
649.08505	-3.05
649.10057	4.1
649.11609	-2.6
649.13161	5.1
649.14712	3.65
649.16263	-1.55
649.17814	-0.7
649.19364	6
649.20915	21.5
649.22465	22.45
649.24015	15.9
649.25564	20.3
649.27114	14.65
649.28663	7.75
649.30212	1
649.3176	1.15
649.33309	-8.05
649.34857	-1.2
649.36405	10.15
649.37952	15.45
649.395	13.4
649.41047	14.25
649.42594	8.7
649.4414	0.6
649.45687	5.9
649.47233	-3.75
649.48779	4.85
649.50324	14.95
649.5187	11.65
649.53415	11.3
649.5496	13.05
649.56505	11.7
649.58049	10.4
649.59593	4.7
649.61137	7.65
649.62681	15.4
649.64224	3.7
649.65768	-2.65
649.67311	12.55
649.68853	20.9
649.70396	11.5
649.71938	14.1
649.7348	7.9
649.75022	19.7
649.76563	5.1
649.78105	8.7
649.79646	-2.4
649.81186	8.5
649.82727	12.3
649.84267	2.15
649.85807	7.8
649.87347	0.25
649.88886	2.95
649.90426	6.1
649.91965	5.1
649.93504	-0.55
649.95042	7.4
649.9658	-2.3
649.98119	0.2
649.99656	3.55
650.01194	-2.25
650.02731	0.1
650.04268	-1.75
650.05805	-1.9
650.07342	0.95
650.08878	6
650.10414	8.55
650.1195	-3.3
650.13486	-2
650.15021	0.5
650.16556	9.35
650.18091	9.1
650.19626	10.6
650.2116	8.3
650.22694	3.05
650.24228	13.35
650.25762	7.05
650.27295	4.1
650.28828	-1.4
650.30361	5.85
650.31894	0.25
650.33426	-6.7
650.34958	0.25
650.3649	26.05
650.38022	15
650.39553	0.3
650.41085	4.65
650.42616	7.4
650.44146	8.65
650.45677	7.65
650.47207	9.1
650.48737	14.9
650.50267	-2
650.51796	-6.5
650.53325	2.15
650.54854	12.3
650.56383	9.7
650.57911	2.95
650.5944	3.85
650.60968	8.1
650.62495	10.45
650.64023	6.75
650.6555	-7.25
650.67077	-6.4
650.68604	0.15
650.70131	10.6
650.71657	5
650.73183	14.55
650.74709	10.65
650.76234	6.4
650.77759	9.95
650.79285	9.9
650.80809	8
650.82334	5.85
650.83858	4.8
650.85382	8.1
650.86906	11.95
650.8843	22.85
650.89953	10.4
650.91476	2.55
650.92999	-2.4
650.94522	0.25
650.96044	5.55
650.97566	7.25
650.99088	3.75
651.00609	-3.15
651.02131	-0.1
651.03652	5.4
651.05173	5.85
651.06693	-11.35
651.08214	-7.9
651.09734	-4.9
651.11254	0.05
651.12773	-6.65
651.14293	5.95
651.15812	-3.2
651.17331	3
651.1885	12.8
651.20368	-1.5
651.21886	-6.6
651.23404	4.35
651.24922	8.55
651.26439	4
651.27956	2.9
651.29473	-1.4
651.3099	13.2
651.32507	-10.1
651.34023	-3.65
651.35539	-0.65
651.37054	-11.1
651.3857	-17.8
651.40085	-1.75
651.416	5.9
651.43115	3.45
651.44629	-3.1
651.46144	-8.7
651.47658	5
651.49171	17.65
651.50685	11.55
651.52198	2.6
651.53711	-1.8
651.55224	-7.7
651.56736	-0.85
651.58249	7.15
651.59761	11.1
651.61273	-11.85
651.62784	0.9
651.64295	-1.15
651.65806	-3.9
651.67317	-0.4
651.68828	2.95
651.70338	11.2
651.71848	14.75
651.73358	19.1
651.74868	-1.85
651.76377	2.4
651.77886	3.15
651.79395	5.75
651.80904	-2.15
651.82412	12.4
651.8392	1.7
651.85428	5.05
651.86935	9.1
651.88443	15.3
651.8995	2.25
651.91457	-4.7
651.92963	1.45
651.9447	20
651.95976	8.05
651.97482	5.6
651.98988	6.7
652.00493	-3.95
652.01998	-2.3
652.03503	14.55
652.05008	27.55
652.06512	60.2
652.08016	8.8
652.0952	2.55
652.11024	28.65
652.12527	9.05
652.14031	4.35
652.15534	3.6
652.17036	12.6
652.18539	3.55
652.20041	9.5
652.21543	9.95
652.23045	0.25
652.24546	4.3
652.26047	8.55
652.27548	6.95
652.29049	7.95
652.3055	2.45
652.3205	5.65
652.3355	3.75
652.3505	1.95
652.36549	4.6
652.38048	8.35
652.39547	10.8
652.41046	5.95
652.42545	14.35
652.44043	13.45
652.45541	-1.55
652.47039	9.75
652.48536	3.4
652.50034	-8.3
652.51531	-9.15
652.53028	0.6
652.54524	0.6
652.5602	0.25
652.57517	-9.4
652.59012	27.4
652.60508	73.5
652.62003	11.25
652.63498	-5.1
652.64993	-4.55
652.66488	-2.7
652.67982	5.55
652.69476	8.2
652.7097	1.15
652.72464	-4.8
652.73957	4.1
652.7545	7.5
652.76943	21.7
652.78436	4.7
652.79928	5.5
652.8142	8.5
652.82912	3.7
652.84404	0.3
652.85895	-7.75
652.87387	2.75
652.88877	16.15
652.90368	15.2
652.91859	-6.1
652.93349	-1.55
652.94839	3.75
652.96328	4.6
652.97818	-4.55
652.99307	-2.9
653.00796	8.05
653.02285	1.5
653.03773	0.75
653.05261	-1.6
653.06749	-1.75
653.08237	-1.9
653.09725	2.1
653.11212	4.05
653.12699	-0.35
653.14186	12.3
653.15672	21.85
653.17158	3.05
653.18644	11.1
653.2013	8
653.21616	9.4
653.23101	13.45
653.24586	-0.1
653.26071	-9.35
653.27555	8.8
653.29039	14.4
653.30524	1.05
653.32007	3.4
653.33491	95.2
653.34974	228.45
653.36457	22.55
653.3794	-1.7
653.39423	-6.5
653.40905	-4.05
653.42387	-2.45
653.43869	2.4
653.45351	0.55
653.46832	-11.5
653.48313	-7.2
653.49794	1.15
653.51274	7.15
653.52755	9.05
653.54235	7
653.55715	-7.35
653.57194	-0.95
653.58674	8.75
653.60153	4.9
653.61632	3.6
653.6311	-8.45
653.64589	-5.25
653.66067	9.85
653.67545	2.6
653.69023	-6.45
653.705	-11.35
653.71977	-5.35
653.73454	-3.2
653.74931	-3.95
653.76407	3.3
653.77883	5.45
653.79359	9.65
653.80835	-2.6
653.8231	2.8
653.83786	6.8
653.85261	17.05
653.86735	7.7
653.8821	30
653.89684	4.55
653.91158	3.55
653.92632	15.75
653.94105	10.8
653.95579	8.9
653.97052	-6.8
653.98524	-7
653.99997	-1.2
654.01469	0.85
654.02941	3.65
654.04413	11.65
654.05884	4.75
654.07356	12
654.08827	42.55
654.10297	84.6
654.11768	19.4
654.13238	19.45
654.14708	10.8
654.16178	-2
654.17648	-0.55
654.19117	-6.4
654.20586	-7.65
654.22055	0.55
654.23524	4.35
654.24992	35.1
654.2646	61.15
654.27928	25.5
654.29395	15.7
654.30863	22.25
654.3233	22
654.33797	9.9
654.35263	9.5
654.3673	11.75
654.38196	9.2
654.39662	-5.6
654.41127	2.3
654.42593	10.15
654.44058	10.95
654.45523	-4.6
654.46987	-7.6
654.48452	2.55
654.49916	5.3
654.5138	2.4
654.52844	2.4
654.54307	8.55
654.5577	17.65
654.57233	6.75
654.58696	6.2
654.60158	4
654.6162	0.15
654.63082	-1.9
654.64544	4.75
654.66005	1.25
654.67467	-0.55
654.68928	6.4
654.70388	6.7
654.71849	11.25
654.73309	41.3
654.74769	88.55
654.76229	6.95
654.77688	13.45
654.79148	6.05
654.80607	0.55
654.82065	14.2
654.83524	11.25
654.84982	6.4
654.8644	2.1
654.87898	-3.35
654.89355	-0.55
654.90813	3.15
654.9227	-2.75
654.93727	-2.1
654.95183	3.7
654.96639	6.15
654.98095	10.85
654.99551	1.75
655.01007	11.6
655.02462	-3.35
655.03917	-1.7
655.05372	-2.25
655.06827	1.1
655.08281	7.55
655.09735	0.1
655.11189	-5.55
655.12643	-1.8
655.14096	-3.45
655.15549	4.45
655.17002	-3.25
655.18454	-0.2
655.19907	5
655.21359	10.8
655.22811	13.05
655.24262	8
655.25714	5
655.27165	7.6
655.28616	-6.65
655.30067	-5.3
655.31517	0.95
655.32967	1.45
655.34417	-0.85
655.35867	-2.9
655.37316	-2.9
655.38765	-5.65
655.40214	3
655.41663	11.4
655.43111	6.3
655.4456	10.25
655.46008	-4.55
655.47455	-1
655.48903	3.5
655.5035	1.8
655.51797	-0.2
655.53244	8.45
655.5469	17
655.56136	21
655.57582	4.5
655.59028	2.75
655.60474	-6.1
655.61919	-1
655.63364	19.65
655.64809	22.4
655.66253	4.4
655.67697	-3.35
655.69141	8.5
655.70585	5.8
655.72029	1.25
655.73472	-2.55
655.74915	-7.5
655.76358	-3
655.778	4.25
655.79243	19.35
655.80685	9.7
655.82127	0.85
655.83568	8.8
655.8501	25.55
655.86451	14.1
655.87891	14.05
655.89332	5.15
655.90772	-4.25
655.92212	-1.9
655.93652	19.05
655.95092	12.1
655.96531	4.35
655.9797	1.4
655.99409	11.15
656.00848	2.15
656.02286	12.05
656.03724	10.9
656.05162	3.55
656.066	-7.9
656.08037	-2.85
656.09475	1.25
656.10911	-2.1
656.12348	4.75
656.13784	10.65
656.15221	5.15
656.16657	18.2
656.18092	8.15
656.19528	12.5
656.20963	5.7
656.22398	1.35
656.23833	6.15
656.25267	12.3
656.26701	14.8
656.28135	-5.15
656.29569	-3.3
656.31002	11.35
656.32436	20.65
656.33869	22.75
656.35301	4.3
656.36734	5.8
656.38166	-3
656.39598	-10.15
656.4103	-7.6
656.42461	-0.05
656.43892	0.6
656.45323	-0.7
656.46754	0.25
656.48185	1.35
656.49615	1.15
656.51045	6.5
656.52475	9.2
656.53904	1.75
656.55334	-2.25
656.56763	0.95
656.58192	4.1
656.5962	3.95
656.61048	-1.95
656.62476	2.35
656.63904	3.95
656.65332	6.05
656.66759	1.65
656.68186	1.75
656.69613	8.1
656.7104	3.6
656.72466	13.55
656.73892	7.7
656.75318	17.5
656.76744	1.3
656.78169	1.95
656.79594	19
656.81019	34.8
656.82444	-2.3
656.83868	4.45
656.85292	4.5
656.86716	3.6
656.8814	8.95
656.89563	1.65
656.90986	-1.05
656.92409	2.05
656.93832	10.4
656.95254	5.1
656.96676	3.45
656.98098	19.6
656.9952	3.7
657.00941	4.7
657.02363	-2.3
657.03784	-3.55
657.05204	2.25
657.06625	21.3
657.08045	4.15
657.09465	4.8
657.10885	-5.6
657.12304	2.95
657.13723	5.55
657.15142	4.65
657.16561	1.5
657.1798	-0.35
657.19398	-15.95
657.20816	-4.15
657.22234	-6.25
657.23651	-4.4
657.25068	-1.75
657.26485	1.5
657.27902	-4.6
657.29319	-11.9
657.30735	2.1
657.32151	0.1
657.33567	7.7
657.34982	25
657.36398	12.15
657.37813	16.35
657.39227	0.65
657.40642	15.3
657.42056	18.7
657.4347	3.15
657.44884	1
657.46298	1.05
657.47711	13.25
657.49124	18.45
657.50537	-6.15
657.5195	-4.7
657.53362	0.75
657.54774	1.95
657.56186	15.35
657.57598	23.1
657.59009	6.5
657.6042	6.9
657.61831	2.8
657.63242	4.45
657.64652	5.45
657.66062	7.25
657.67472	14.9
657.68882	10.15
657.70291	2.45
657.717	4.15
657.73109	5.05
657.74518	8.1
657.75926	0.3
657.77335	-1.35
657.78742	-0.15
657.8015	-3.6
657.81558	4.15
657.82965	7.95
657.84372	0.15
657.85778	8.25
657.87185	0.1
657.88591	4.3
657.89997	0.35
657.91403	12.7
657.92808	13.8
657.94214	6.8
657.95618	5.95
657.97023	3.4
657.98428	8.7
657.99832	32.95
658.01236	10.8
658.0264	-9.1
658.04043	-0.7
658.05447	4.3
658.0685	-6.7
658.08252	-5.1
658.09655	6.95
658.11057	15.85
658.12459	16.3
658.13861	20.7
658.15263	11.65
658.16664	22.5
658.18065	11.05
658.19466	-0.9
658.20866	-6.15
658.22267	-1.45
658.23667	10.85
658.25067	8.5
658.26466	6.8
658.27865	5.1
658.29265	-0.65
658.30663	1.4
658.32062	2.45
658.3346	2.7
658.34858	3.85
658.36256	6.1
658.37654	5.8
658.39051	14.15
658.40448	14.25
658.41845	7.65
658.43242	7.25
658.44638	-1.15
658.46035	-6.25
658.4743	4.65
658.48826	10.8
658.50221	19
658.51617	9.85
658.53012	-2
658.54406	-2.4
658.55801	2.9
658.57195	-1.35
658.58589	14.7
658.59983	12.25
658.61376	-6.85
658.62769	-2
658.64162	12.55
658.65555	12
658.66947	1.8
658.6834	37.5
658.69731	95
658.71123	13.5
658.72515	11.45
658.73906	7.4
658.75297	5.5
658.76688	2.85
658.78078	12.6
658.79468	2.2
658.80858	-5.5
658.82248	-1.8
658.83638	6.1
658.85027	10.75
658.86416	7.85
658.87805	5.85
658.89193	-1.1
658.90582	0.95
658.9197	0.7
658.93357	5.2
658.94745	4.15
658.96132	-6.1
658.97519	4.2
658.98906	-5.6
659.00293	-5.1
659.01679	-4.95
659.03065	-1.75
659.04451	11.2
659.05837	5.9
659.07222	4.4
659.08607	6.55
659.09992	12.75
659.11377	8.15
659.12761	-2.35
659.14145	4.1
659.15529	10.7
659.16913	8.15
659.18296	9.35
659.19679	2.2
659.21062	8.65
659.22445	7.9
659.23827	29.4
659.25209	22.7
659.26591	11.25
659.27973	18.25
659.29354	4.7
659.30735	-2.2
659.32116	4.55
659.33497	2.25
659.34877	-9.45
659.36258	-1.2
659.37637	18.05
659.39017	11.45
659.40397	-7.55
659.41776	-0.8
659.43155	3.6
659.44533	7.15
659.45912	17.95
659.4729	-0.55
659.48668	4.4
659.50046	2.4
659.51423	2.25
659.52801	7.1
659.54178	15.4
659.55554	1.45
659.56931	7.4
659.58307	4.2
659.59683	6.95
659.61059	7.85
659.62434	23.2
659.6381	35.7
659.65185	2.05
659.6656	-4.4
659.67934	3.7
659.69308	3.35
659.70682	8.85
659.72056	6.45
659.7343	8.25
659.74803	-0.85
659.76176	-0.75
659.77549	3.9
659.78922	14.35
659.80294	-11.3
659.81666	-6.55
659.83038	9.5
659.84409	7.85
659.85781	-2.2
659.87152	2.7
659.88523	2.75
659.89893	2.5
659.91264	10.85
659.92634	20.8
659.94004	7.7
659.95373	5.65
659.96743	9.55
659.98112	14.95
659.99481	10.75
660.00849	7.1
660.02218	10.95
660.03586	12.45
660.04954	-3.5
660.06322	1.85
660.07689	19.35
660.09056	24.75
660.10423	-5
660.1179	5.65
660.13156	11.9
660.14522	4.9
660.15888	1.65
660.17254	4.05
660.1862	11
660.19985	2.25
660.2135	-6.1
660.22714	3.35
660.24079	4.75
660.25443	-0.4
660.26807	6.65
660.28171	10.25
660.29534	5.45
660.30898	5.15
660.32261	-0.35
660.33623	-11.2
660.34986	-7.85
660.36348	8.8
660.3771	5.7
660.39072	23.35
660.40433	20.1
660.41795	14.3
660.43156	0.85
660.44517	5.15
660.45877	11.8
660.47237	5
660.48598	-1
660.49957	0.55
660.51317	3.55
660.52676	0.55
660.54035	11.45
660.55394	15.25
660.56753	7.35
660.58111	12.25
660.59469	17.4
660.60827	-5.7
660.62185	4.7
660.63542	11.5
660.64899	12.1
660.66256	14.85
660.67613	12.3
660.68969	16
660.70325	9.45
660.71681	-2.4
660.73037	-5.1
660.74392	4.55
660.75747	3.4
660.77102	2.65
660.78457	2
660.79811	10.9
660.81165	15.65
660.82519	7.15
660.83873	2.05
660.85226	9.65
660.86579	13.6
660.87932	9.05
660.89285	0.9
660.90637	17.55
660.9199	12.7
660.93342	10.2
660.94693	10.9
660.96045	0.7
660.97396	11.1
660.98747	17.25
661.00098	1.25
661.01448	-5.85
661.02798	1.95
661.04148	5.7
661.05498	15.2
661.06848	7.75
661.08197	1.65
661.09546	21.8
661.10895	41.85
661.12243	11.55
661.13591	7.55
661.14939	-8.25
661.16287	-0.05
661.17635	13.2
661.18982	11.3
661.20329	24.05
661.21676	22.55
661.23022	7.4
661.24369	7.9
661.25715	10.85
661.27061	5.4
661.28406	16.3
661.29752	-6.1
661.31097	-0.85
661.32441	8.55
661.33786	3.65
661.3513	-1
661.36474	4.65
661.37818	7.8
661.39162	4.75
661.40505	43.3
661.41848	106.15
661.43191	13.05
661.44534	5
661.45876	9.25
661.47218	14.95
661.4856	10.65
661.49902	15.5
661.51243	2.7
661.52585	13.55
661.53925	9.9
661.55266	7.65
661.56606	1.65
661.57947	6.65
661.59287	-2.75
661.60626	-0.5
661.61966	10.6
661.63305	6.6
661.64644	5.8
661.65983	3.35
661.67321	8.95
661.68659	6.75
661.69997	19.8
661.71335	10.45
661.72672	22.25
661.7401	45.55
661.75347	5.7
661.76683	9.8
661.7802	18
661.79356	20.85
661.80692	0.55
661.82028	5.55
661.83363	3.35
661.84698	-3
661.86033	8.25
661.87368	10.85
661.88703	11.6
661.90037	4.9
661.91371	0.65
661.92705	-0.4
661.94038	4.8
661.95372	7.2
661.96705	19.45
661.98038	25.2
661.9937	11.7
662.00702	6.3
662.02034	15
662.03366	9.6
662.04698	7.25
662.06029	4.45
662.0736	-2.65
662.08691	-1.7
662.10022	4.2
662.11352	6.35
662.12682	7.5
662.14012	-9
662.15342	3.2
662.16671	13.95
662.18	-0.15
662.19329	0
662.20658	-4.4
662.21986	-2.1
662.23314	3.15
662.24642	-2.45
662.2597	6.45
662.27297	5.65
662.28624	-2.05
662.29951	8.65
662.31278	-1.9
662.32604	-1.9
662.3393	1.5
662.35256	4.55
662.36582	2.1
662.37907	-1.05
662.39233	1.8
662.40558	4.85
662.41882	9.25
662.43207	12.75
662.44531	4
662.45855	-0.9
662.47179	-3.35
662.48502	4.8
662.49825	2.15
662.51148	13.35
662.52471	14.1
662.53794	1.8
662.55116	12.25
662.56438	7.15
662.5776	2.65
662.59081	8.55
662.60402	11.8
662.61723	6.05
662.63044	13.4
662.64365	7.95
662.65685	2.7
662.67005	16.05
662.68325	21.9
662.69644	3.05
662.70964	5.65
662.72283	9.85
662.73601	11.2
662.7492	13.65
662.76238	6.1
662.77556	9.05
662.78874	14.45
662.80192	16.7
662.81509	20.5
662.82826	12.3
662.84143	-2.35
662.8546	5.05
662.86776	7.85
662.88092	-2.4
662.89408	-2.9
662.90724	5.25
662.92039	27.6
662.93354	7.55
662.94669	4.05
662.95984	4.5
662.97298	-1.45
662.98612	-5.2
662.99926	-9.7
663.0124	6.05
663.02553	7.85
663.03866	11.2
663.05179	6.4
663.06492	9.5
663.07804	15.15
663.09116	17.75
663.10428	3.1
663.1174	-3.55
663.13052	4.75
663.14363	4.75
663.15674	-2.6
663.16984	2.5
663.18295	12.65
663.19605	14.35
663.20915	14.95
663.22225	11.9
663.23534	14.5
663.24843	1.45
663.26152	-6.3
663.27461	-4.1
663.2877	0.6
663.30078	6.05
663.31386	9.55
663.32694	7.85
663.34001	21.85
663.35308	15.5
663.36615	0.15
663.37922	11
663.39229	21.65
663.40535	-4
663.41841	-5.15
663.43147	0.55
663.44452	10.35
663.45758	12.75
663.47063	13.15
663.48368	5.65
663.49672	8.4
663.50977	-4.95
663.52281	3.3
663.53584	1.2
663.54888	-6.85
663.56191	-6.35
663.57494	-9.85
663.58797	-8.05
663.601	-0.5
663.61402	3.75
663.62704	9.5
663.64006	3.4
663.65308	3.6
663.66609	-2.95
663.6791	-3.7
663.69211	20.2
663.70512	24.1
663.71812	3.4
663.73112	-3.45
663.74412	2.85
663.75712	14.65
663.77011	7
663.78311	5.35
663.79609	11.95
663.80908	6.45
663.82207	0.05
663.83505	-13.75
663.84803	-4.75
663.861	2.3
663.87398	5.55
663.88695	9.7
663.89992	3.7
663.91289	5.65
663.92585	13
663.93881	0.55
663.95177	11.95
663.96473	25.35
663.97769	9.45
663.99064	-3.9
664.00359	2.2
664.01654	14.85
664.02948	11.35
664.04242	8.75
664.05536	5.45
664.0683	10.45
664.08124	11.8
664.09417	16.05
664.1071	14.6
664.12003	11.5
664.13295	0.5
664.14588	0.9
664.1588	1.1
664.17171	1
664.18463	6.05
664.19754	-0.9
664.21045	9.4
664.22336	6.5
664.23627	11.7
664.24917	8.4
664.26207	3.6
664.27497	0.4
664.28787	13.1
664.30076	16.95
664.31365	5.55
664.32654	6.65
664.33942	-1.35
664.35231	1.4
664.36519	2.3
664.37807	4.7
664.39094	9.8
664.40382	18.45
664.41669	14.45
664.42956	9.75
664.44242	7.25
664.45529	6.75
664.46815	1.55
664.48101	6.45
664.49387	14.7
664.50672	-4
664.51957	-1.4
664.53242	9.5
664.54527	5.7
664.55811	4.75
664.57095	3.35
664.58379	8.8
664.59663	-2.15
664.60946	5.85
664.6223	14.1
664.63513	11.4
664.64795	12.55
664.66078	10.75
664.6736	2.65
664.68642	0.15
664.69924	-1.35
664.71205	5.2
664.72486	-2.15
664.73767	0.5
664.75048	12.05
664.76329	13.45
664.77609	3.85
664.78889	19.85
664.80169	10.95
664.81448	-0.2
664.82728	0.4
664.84007	6.05
664.85285	-1.85
664.86564	7.4
664.87842	-2.85
664.8912	-1.25
664.90398	16.45
664.91676	15.35
664.92953	4
664.9423	11.55
664.95507	15.8
664.96783	11.75
664.9806	14.1
664.99336	3.9
665.00612	9.05
665.01887	15.85
665.03163	8.95
665.04438	11.9
665.05713	19.55
665.06987	1.7
665.08262	-7.15
665.09536	-2.05
665.1081	3.55
665.12083	4.2
665.13357	1.15
665.1463	18.8
665.15903	13.55
665.17175	18.85
665.18448	2.7
665.1972	5.75
665.20992	2
665.22263	8.5
665.23535	29.15
665.24806	54.65
665.26077	8.1
665.27348	-0.4
665.28618	14.65
665.29888	12.15
665.31158	-1.05
665.32428	16.4
665.33697	11.55
665.34967	5.35
665.36236	-0.75
665.37504	4
665.38773	7.25
665.40041	15.75
665.41309	11.8
665.42577	9.65
665.43844	-0.1
665.45111	1.05
665.46378	2.75
665.47645	6.6
665.48912	13.75
665.50178	10.9
665.51444	2.45
665.5271	9.9
665.53975	1.85
665.55241	-1.7
665.56506	3.15
665.5777	0.75
665.59035	6.1
665.60299	10.45
665.61563	14.3
665.62827	14.75
665.64091	5.45
665.65354	1.8
665.66617	3.85
665.6788	8.1
665.69142	13.5
665.70405	9.2
665.71667	-1.1
665.72929	-0.3
665.7419	7.9
665.75452	-5.55
665.76713	2.65
665.77974	1.85
665.79234	16.1
665.80495	10.2
665.81755	8
665.83015	-5
665.84274	9.1
665.85534	3.25
665.86793	3.2
665.88052	6.6
665.8931	14.35
665.90569	4.45
665.91827	2.05
665.93085	-6.5
665.94343	12.8
665.956	8.45
665.96857	-4.1
665.98114	-3.3
665.99371	-13.15
666.00627	-14.55
666.01883	-3.3
666.03139	13.3
666.04395	11.3
666.05651	15.4
666.06906	20.35
666.08161	10.35
666.09415	5.85
666.1067	6.55
666.11924	7.35
666.13178	1.95
666.14432	-1.45
666.15685	-3.85
666.16939	1.4
666.18192	6.25
666.19444	6.5
666.20697	15.25
666.21949	21.6
666.23201	14.35
666.24453	7.05
666.25705	15.95
666.26956	6.1
666.28207	9.05
666.29458	1.85
666.30708	2.6
666.31959	8.55
666.33209	16.05
666.34458	11.95
666.35708	14.05
666.36957	16.05
666.38206	15.15
666.39455	11.4
666.40704	6.95
666.41952	11.4
666.432	8.4
666.44448	10
666.45696	0.75
666.46943	0.4
666.4819	5.85
666.49437	7.75
666.50684	10.7
666.5193	0.1
666.53176	-6.2
666.54422	1.35
666.55668	10.55
666.56913	2.35
666.58158	6.6
666.59403	15.55
666.60648	12.05
666.61892	5.35
666.63136	13.15
666.6438	9.75
666.65624	6.85
666.66867	14.3
666.68111	10.85
666.69354	13.65
666.70596	14.8
666.71839	1.65
666.73081	6.7
666.74323	0.35
666.75565	14.25
666.76806	14.1
666.78047	1.8
666.79288	4.5
666.80529	9.05
666.81769	6.45
666.8301	9.85
666.8425	9.3
666.85489	1.9
666.86729	7.25
666.87968	-1.7
666.89207	-0.65
666.90446	12.2
666.91684	18.3
666.92923	8.75
666.94161	24.65
666.95399	43.7
666.96636	11.7
666.97873	10.95
666.9911	-1.7
667.00347	13.75
667.01584	24.85
667.0282	21.1
667.04056	6.15
667.05292	9.9
667.06528	13.2
667.07763	3.4
667.08998	13.55
667.10233	19.2
667.11467	6.65
667.12702	4.45
667.13936	8.4
667.1517	29.9
667.16403	23.75
667.17637	29.35
667.1887	24.25
667.20103	36.15
667.21335	78.4
667.22568	210.8
667.238	703.95
667.25032	2171.55
667.26263	4460.2
667.27495	5206.3
667.28726	3695.2
667.29957	2447.05
667.31188	1971.75
667.32418	1630.9
667.33648	1340.85
667.34878	1096.55
667.36108	820.65
667.37337	566.95
667.38566	370.4
667.39795	246.1
667.41024	156.25
667.42252	120.95
667.43481	83.65
667.44709	53
667.45936	44.7
667.47164	39.9
667.48391	29.7
667.49618	13.75
667.50845	8.6
667.52071	16.4
667.53297	16.05
667.54523	18.4
667.55749	14.7
667.56975	11.85
667.582	5.4
667.59425	10.75
667.6065	23.6
667.61874	9.65
667.63099	18.35
667.64323	21
667.65546	2.85
667.6677	8.05
667.67993	6.75
667.69216	10.6
667.70439	4.25
667.71662	3.3
667.72884	10.65
667.74106	11.5
667.75328	10.9
667.76549	10.8
667.77771	8.7
667.78992	12
667.80213	7.35
667.81433	1
667.82654	11.15
667.83874	13.95
667.85094	-5.15
667.86313	-8.4
667.87533	-4.5
667.88752	2.95
667.89971	4.65
667.91189	3.2
667.92408	-2.2
667.93626	3.3
667.94844	8.15
667.96061	11.7
667.97279	2.1
667.98496	1.2
667.99713	0.25
668.0093	3.45
668.02146	13.15
668.03362	14.5
668.04578	7.85
668.05794	-5.8
668.07009	-1.75
668.08224	9.3
668.09439	28.7
668.10654	14.55
668.11868	12.65
668.13083	10.3
668.14297	4.15
668.1551	8.65
668.16724	9.95
668.17937	12.7
668.1915	1.95
668.20363	6.15
668.21575	6.5
668.22788	-0.7
668.24	7.2
668.25211	14.65
668.26423	18.7
668.27634	3.6
668.28845	6.8
668.30056	2.55
668.31266	1
668.32477	4.8
668.33687	-0.75
668.34897	0.55
668.36106	5.05
668.37315	11.2
668.38524	8.6
668.39733	5.95
668.40942	-4.55
668.4215	3.5
668.43358	4
668.44566	2.6
668.45774	5.7
668.46981	0.7
668.48188	2.85
668.49395	7.05
668.50602	18.15
668.51808	9.8
668.53014	4.35
668.5422	6.15
668.55425	9.35
668.56631	8.6
668.57836	1.9
668.59041	12.8
668.60246	2.85
668.6145	-5.75
668.62654	-2.95
668.63858	4.4
668.65062	7.05
668.66265	12
668.67468	-0.45
668.68671	4.85
668.69874	23.7
668.71076	11.2
668.72278	4.3
668.7348	2.8
668.74682	-0.8
668.75883	-1.1
668.77085	-7.75
668.78286	-10.9
668.79486	1.65
668.80687	6.75
668.81887	2.6
668.83087	9.9
668.84287	-2.85
668.85486	9.35
668.86685	-9.5
668.87884	-5.45
668.89083	9.8
668.90282	15.2
668.9148	4.7
668.92678	0.85
668.93876	4.1
668.95073	7.35
668.9627	3.45
668.97468	4.5
668.98664	12.1
668.99861	14.05
669.01057	10.55
669.02253	9.95
669.03449	15.05
669.04645	3.85
669.0584	5.75
669.07035	4.35
669.0823	-0.25
669.09424	-5.2
669.10619	-4.15
669.11813	3.85
669.13007	9.85
669.142	6.5
669.15393	14.2
669.16587	4.75
669.17779	-0.5
669.18972	-3.05
669.20164	-5.7
669.21356	2.3
669.22548	6.05
669.2374	1.65
669.24931	3.05
669.26123	-1.85
669.27313	7.45
669.28504	10.7
669.29694	0.5
669.30885	2.9
669.32074	8.25
669.33264	11.25
669.34454	2.3
669.35643	-5.45
669.36832	-4.15
669.3802	1.5
669.39209	-5.8
669.40397	-0.25
669.41585	-4.35
669.42773	-7.05
669.4396	-11.2
669.45147	-10.7
669.46334	-2.95
669.47521	1.5
669.48707	-5.3
669.49894	-2.65
669.5108	4.25
669.52265	1.7
669.53451	5.25
669.54636	-5.15
669.55821	5
669.57006	1.85
669.5819	-8.1
669.59375	-3.8
669.60559	0.5
669.61742	1.05
669.62926	-4.45
669.64109	-4.3
669.65292	5
669.66475	2.55
669.67658	1.2
669.6884	0.45
669.70022	0.85
669.71204	14.9
669.72385	2.95
669.73567	1.7
669.74748	0.95
669.75928	1.55
669.77109	5.5
669.78289	5.7
669.79469	2.7
669.80649	2.6
669.81829	-1.8
669.83008	8.15
669.84187	1
669.85366	-4.3
669.86545	-0.85
669.87723	7.55
669.88901	13
669.90079	9.2
669.91257	4.5
669.92434	15.1
669.93611	22.4
669.94788	16.4
669.95965	6.8
669.97141	-1.8
669.98317	2.35
669.99493	8.5
670.00669	4.6
670.01844	5.65
670.0302	10.3
670.04194	-0.1
670.05369	8.75
670.06544	-5.55
670.07718	2.5
670.08892	8.65
670.10065	6.5
670.11239	6.4
670.12412	8.25
670.13585	9.95
670.14758	-0.05
670.1593	0.65
670.17103	12.25
670.18275	24.9
670.19446	3.65
670.20618	8.05
670.21789	6.5
670.2296	10.7
670.24131	1.95
670.25301	12.85
670.26472	21.6
670.27642	14.15
670.28811	2.35
670.29981	2.6
670.3115	-0.5
670.32319	-1.6
670.33488	-5.1
670.34656	-2.3
670.35825	11.7
670.36993	11.1
670.38161	1.15
670.39328	-4.1
670.40496	3.75
670.41663	2.55
670.42829	8.8
670.43996	7.65
670.45162	6.85
670.46328	-2.7
670.47494	-6.65
670.4866	1.35
670.49825	8.1
670.5099	4.7
670.52155	6.3
670.5332	13.55
670.54484	1.25
670.55648	0.8
670.56812	15.75
670.57976	3.5
670.59139	-2.45
670.60302	1.6
670.61465	8
670.62628	2.8
670.6379	1.3
670.64952	5.2
670.66114	-0.4
670.67276	-10.3
670.68438	-0.95
670.69599	9.25
670.7076	3.3
670.7192	9.25
670.73081	20.9
670.74241	17.9
670.75401	6.6
670.76561	11.8
670.7772	13.5
670.78879	1.65
670.80038	-4.55
670.81197	-4.1
670.82355	1.25
670.83514	6.9
670.84672	-0.25
670.85829	-0.95
670.86987	-3.75
670.88144	2.3
670.89301	-5.95
670.90458	-9.1
670.91614	-7.65
670.92771	1.6
670.93927	7.7
670.95083	7.55
670.96238	3.85
670.97393	-2.65
670.98548	1
670.99703	-4.05
671.00858	-5.05
671.02012	0.35
671.03166	-7.75
671.0432	-5.4
671.05473	4.5
671.06627	9.35
671.0778	0.4
671.08933	1.3
671.10085	2.1
671.11238	7.15
671.1239	5.5
671.13542	9.05
671.14693	4.55
671.15845	-1.9
671.16996	9.15
671.18147	18.05
671.19297	8.7
671.20448	12.15
671.21598	0.9
671.22748	0.2
671.23897	2.6
671.25047	0.5
671.26196	2.3
671.27345	-1.3
671.28493	2.45
671.29642	-2.65
671.3079	2.15
671.31938	-2.2
671.33085	-3.4
671.34233	11.45
671.3538	13.65
671.36527	5.15
671.37674	-9.65
671.3882	-8.75
671.39966	-5.5
671.41112	2.1
671.42258	-2.25
671.43404	4.85
671.44549	10.05
671.45694	1.85
671.46838	8.35
671.47983	8.15
671.49127	2.35
671.50271	14.3
671.51415	9.75
671.52558	8.6
671.53702	9.2
671.54845	15.6
671.55987	4.85
671.5713	5.5
671.58272	6.05
671.59414	10.55
671.60556	23.35
671.61698	19.2
671.62839	5.85
671.6398	6.9
671.65121	2.2
671.66261	-2.65
671.67402	-6.1
671.68542	-2.8
671.69681	-9
671.70821	-6.6
671.7196	-0.75
671.73099	-7.15
671.74238	0.75
671.75377	1.2
671.76515	3.25
671.77653	-3.1
671.78791	2.45
671.79929	16.35
671.81066	12.45
671.82203	17.3
671.8334	1.9
671.84477	7.3
671.85613	8.25
671.86749	7.85
671.87885	13.85
671.89021	26.8
671.90156	5.4
671.91291	-3.1
671.92426	-8.85
671.93561	-0.9
671.94695	2.1
671.9583	0.85
671.96963	15.35
671.98097	11.4
671.99231	5.85
672.00364	-8.95
672.01497	6
672.02629	7.1
672.03762	-1.15
672.04894	-5.05
672.06026	-6.5
672.07158	-7.5
672.08289	-3.65
672.0942	-2.5
672.10551	16.35
672.11682	33
672.12813	11.85
672.13943	1.2
672.15073	-2
672.16203	1.95
672.17332	2
672.18461	0.05
672.1959	13.15
672.20719	14.3
672.21848	17.5
672.22976	17.3
672.24104	11
672.25232	1.9
672.26359	3.55
672.27487	0.4
672.28614	12.3
672.29741	12.25
672.30867	1.15
672.31993	1.4
672.33119	4.45
672.34245	4.3
672.35371	-8.05
672.36496	0.7
672.37621	1.65
672.38746	-4.85
672.39871	-0.95
672.40995	1.4
672.42119	12.45
672.43243	21.6
672.44367	15.3
672.4549	0.6
672.46613	10.95
672.47736	8.25
672.48859	12.25
672.49981	3
672.51103	-1.45
672.52225	4.25
672.53347	4.65
672.54468	2.55
672.55589	11.25
672.5671	2.2
672.57831	2.4
672.58951	13.85
672.60072	7.35
672.61191	0.45
672.62311	4.55
672.63431	6.15
672.6455	4.8
672.65669	0.5
672.66787	-3.15
672.67906	-2.65
672.69024	-2.1
672.70142	-1.7
672.7126	4.25
672.72377	-4.35
672.73494	-4.3
672.74611	5.1
672.75728	1.5
672.76845	2
672.77961	2.9
672.79077	-0.6
672.80193	-0.85
672.81308	8.2
672.82423	13.15
672.83539	13.05
672.84653	2.25
672.85768	2.55
672.86882	2.35
672.87996	7.2
672.8911	0.25
672.90223	6.35
672.91337	0.3
672.9245	-1.35
672.93563	-1.25
672.94675	9
672.95788	13.2
672.969	-1.2
672.98011	1.15
672.99123	10.3
673.00234	5.3
673.01345	-0.05
673.02456	-5.1
673.03567	4.15
673.04677	10.65
673.05787	-2.55
673.06897	0.4
673.08007	1.3
673.09116	0.25
673.10225	-7.45
673.11334	5.05
673.12443	15.7
673.13551	17.5
673.14659	10.55
673.15767	4.45
673.16875	3.6
673.17982	1.45
673.1909	-3.45
673.20196	3.45
673.21303	-0.9
673.2241	4.15
673.23516	10.05
673.24622	4.85
673.25727	8.85
673.26833	5.9
673.27938	8.7
673.29043	7.65
673.30148	18.15
673.31252	8.1
673.32356	4.65
673.3346	0.85
673.34564	1.4
673.35668	1.25
673.36771	-8.5
673.37874	1.45
673.38977	8.2
673.40079	13.55
673.41181	6.6
673.42283	10.65
673.43385	1.5
673.44487	5.65
673.45588	0.4
673.46689	-7.55
673.4779	9.2
673.4889	13.6
673.4999	2
673.51091	4.85
673.5219	7.65
673.5329	19.6
673.54389	10.9
673.55488	0.25
673.56587	13.1
673.57686	10.25
673.58784	2.55
673.59882	17.4
673.6098	4.75
673.62077	11.35
673.63175	31.8
673.64272	13.95
673.65369	0.05
673.66465	6.2
673.67562	0.45
673.68658	7.55
673.69754	-1.65
673.70849	8.4
673.71945	13.65
673.7304	14.2
673.74135	24.95
673.75229	21.2
673.76324	26.4
673.77418	4.55
673.78512	9.5
673.79605	8.75
673.80699	16.25
673.81792	6.95
673.82885	9.75
673.83978	16.2
673.8507	15.85
673.86162	5.95
673.87254	-1
673.88346	8.75
673.89437	6.65
673.90529	9.55
673.9162	16.7
673.9271	9.75
673.93801	12.35
673.94891	-1.75
673.95981	1.55
673.97071	1.1
673.9816	7
673.99249	6.75
674.00338	12.4
674.01427	2.35
674.02516	3.2
674.03604	-5.8
674.04692	-1.6
674.0578	4
674.06867	6.8
674.07954	9.5
674.09042	24.85
674.10128	0.95
674.11215	-8.5
674.12301	0.6
674.13387	3.65
674.14473	-0.95
674.15559	0.4
674.16644	0.45
674.17729	-2.6
674.18814	-0.45
674.19898	3.45
674.20983	-0.4
674.22067	0.9
674.23151	1.75
674.24234	-6.6
674.25318	3.85
674.26401	20.6
674.27483	11.05
674.28566	-3.65
674.29648	-1.75
674.30731	-1.45
674.31812	-0.2
674.32894	-0.95
674.33975	7.95
674.35057	9.75
674.36137	2.95
674.37218	10.3
674.38299	-7.45
674.39379	-10.6
674.40459	10.65
674.41538	10.65
674.42618	3.6
674.43697	1.15
674.44776	-2.2
674.45854	3.7
674.46933	9.15
674.48011	2.9
674.49089	-2.75
674.50167	-1.4
674.51244	-1.45
674.52321	-8.1
674.53398	-15.2
674.54475	-8.15
674.55552	4.45
674.56628	2.45
674.57704	1.2
674.5878	5.65
674.59855	2.4
674.6093	6.15
674.62005	8.25
674.6308	7.7
674.64155	0.05
674.65229	-0.2
674.66303	-1.55
674.67377	8.65
674.6845	10.3
674.69523	24.1
674.70596	12.4
674.71669	-1.4
674.72742	-3.1
674.73814	-1.65
674.74886	2.35
674.75958	-1.7
674.77029	5.5
674.78101	-1.75
674.79172	8.2
674.80243	8.6
674.81313	7.6
674.82384	18.05
674.83454	5.15
674.84524	-4.9
674.85593	-1.25
674.86663	5.2
674.87732	-2.55
674.888	1.15
674.89869	2.3
674.90937	8
674.92006	11.8
674.93073	12.15
674.94141	4.15
674.95208	5.9
674.96276	18.4
674.97343	16.8
674.98409	16.55
674.99476	14
675.00542	1.3
675.01608	2.6
675.02673	1.85
675.03739	2.2
675.04804	5.35
675.05869	15.5
675.06934	12.65
675.07998	17
675.09062	-5.7
675.10126	-6.2
675.1119	1.15
675.12253	14.35
675.13317	10.7
675.1438	7.6
675.15442	2.8
675.16505	-0.3
675.17567	9.2
675.18629	17.6
675.19691	8.7
675.20752	7.65
675.21813	5.55
675.22874	3.3
675.23935	7.6
675.24996	6.75
675.26056	13.3
675.27116	7.45
675.28176	5.15
675.29235	5.2
675.30295	5.9
675.31354	3.5
675.32412	3.45
675.33471	-10.8
675.34529	-5.9
675.35587	-3.25
675.36645	-11.35
675.37703	-8.25
675.3876	1.85
675.39817	5
675.40874	4.7
675.41931	5.55
675.42987	17.2
675.44043	9.05
675.45099	3.95
675.46154	9.35
675.4721	10.05
675.48265	10.4
675.4932	13.2
675.50374	9.95
675.51429	1.05
675.52483	2.1
675.53537	-5.35
675.5459	-1.1
675.55644	9.65
675.56697	3.8
675.5775	1.95
675.58803	0.35
675.59855	5.9
675.60907	1.95
675.61959	-1.95
675.63011	-0.65
675.64062	-6.75
675.65113	-3.25
675.66164	9.1
675.67215	-0.8
675.68265	6.85
675.69316	5.05
675.70366	2.9
675.71415	13.9
675.72465	25.5
675.73514	12.1
675.74563	15.45
675.75612	2.6
675.7666	-4.6
675.77708	2.85
675.78756	4.3
675.79804	-0.75
675.80852	11
675.81899	19.35
675.82946	8.85
675.83993	6.45
675.85039	10
675.86085	13.3
675.87131	18.6
675.88177	11.45
675.89223	13.65
675.90268	16.25
675.91313	10
675.92358	6.4
675.93402	-3.45
675.94447	6.2
675.95491	13.45
675.96535	0.3
675.97578	7.95
675.98622	18.95
675.99665	-1.95
676.00707	4.2
676.0175	11.75
676.02792	8.95
676.03835	1.4
676.04876	3.8
676.05918	1.45
676.06959	8.45
676.08	18.85
676.09041	13.5
676.10082	-0.95
676.11122	6.45
676.12162	63.85
676.13202	124.9
676.14242	19.4
676.15281	0.05
676.16321	-6.05
676.17359	-1.65
676.18398	-4.75
676.19437	6.6
676.20475	-0.9
676.21513	-5.85
676.2255	5.85
676.23588	19.7
676.24625	12.75
676.25662	-0.5
676.26699	-5.7
676.27735	-0.05
676.28771	17.95
676.29807	7.6
676.30843	9.1
676.31878	3.15
676.32914	8.4
676.33949	10.2
676.34983	12.1
676.36018	3.15
676.37052	0.2
676.38086	-2.2
676.3912	-2.7
676.40153	6.15
676.41187	12.45
676.4222	5.35
676.43252	7.1
676.44285	20.85
676.45317	8.75
676.46349	-2.8
676.47381	4.7
676.48413	10.35
676.49444	8.25
676.50475	11.05
676.51506	10.55
676.52536	16.5
676.53567	5.95
676.54597	9.6
676.55626	12.1
676.56656	2.3
676.57685	-1.3
676.58714	8.9
676.59743	8.95
676.60772	4.5
676.618	-0.25
676.62828	1.45
676.63856	-8.75
676.64884	-5.15
676.65911	-2.5
676.66938	-4.2
676.67965	1.95
676.68992	13.9
676.70018	14.15
676.71044	8
676.7207	26.2
676.73096	19.65
676.74121	14.7
676.75146	16.9
676.76171	19.1
676.77196	3.85
676.7822	-2.9
676.79245	1.4
676.80269	10.85
676.81292	-2.45
676.82316	-5.65
676.83339	11.4
676.84362	24.8
676.85385	1.35
676.86407	7.3
676.87429	4.5
676.88451	13.4
676.89473	11.95
676.90494	-11.75
676.91516	-5.5
676.92537	-2.05
676.93557	10.05
676.94578	5.5
676.95598	-2.95
676.96618	-2.25
676.97638	-4.7
676.98657	-0.95
676.99677	-1.9
677.00696	6
677.01714	19.1
677.02733	11.2
677.03751	7.9
677.04769	4.45
677.05787	2.45
677.06805	6.5
677.07822	4.05
677.08839	7.45
677.09856	-2
677.10872	2.95
677.11889	5.65
677.12905	12.2
677.13921	8.85
677.14936	4
677.15951	1.65
677.16967	5.4
677.17981	11.2
677.18996	15.05
677.2001	-1.4
677.21025	-9.1
677.22038	2.3
677.23052	1.65
677.24065	-1.25
677.25078	0
677.26091	9.65
677.27104	8.3
677.28116	-0.95
677.29129	3.1
677.3014	4.4
677.31152	12.55
677.32164	39.55
677.33175	4.35
677.34186	3.95
677.35196	6.95
677.36207	14.8
677.37217	13.65
677.38227	15.3
677.39236	8.75
677.40246	0.3
677.41255	-1.55
677.42264	1.4
677.43273	6.45
677.44281	9.15
677.45289	13
677.46297	-0.95
677.47305	-6.8
677.48313	-3.8
677.4932	2.05
677.50327	1.8
677.51334	2.65
677.5234	6.3
677.53346	13.85
677.54352	6.3
677.55358	6.55
677.56364	13.65
677.57369	20.1
677.58374	7.25
677.59379	-6.5
677.60383	-3.95
677.61388	4.45
677.62392	3.9
677.63395	5.4
677.64399	11.25
677.65402	15.85
677.66405	8.45
677.67408	-3.05
677.68411	1.65
677.69413	6.25
677.70415	9.5
677.71417	10.7
677.72419	-1.3
677.7342	1.7
677.74421	-5.95
677.75422	-5.4
677.76422	-2.6
677.77423	7.65
677.78423	13.6
677.79423	3.65
677.80422	9.9
677.81422	5.45
677.82421	-2.65
677.8342	2
677.84418	0.45
677.85417	8.3
677.86415	14.6
677.87413	6.2
677.88411	-0.95
677.89408	9.5
677.90405	9.55
677.91402	6.65
677.92399	10.9
677.93395	24.9
677.94391	13.95
677.95387	-0.85
677.96383	0.35
677.97378	7.15
677.98374	5.75
677.99369	7.05
678.00363	15.9
678.01358	1.15
678.02352	4.35
678.03346	8.15
678.0434	1.3
678.05333	-1.6
678.06326	4.45
678.07319	3.35
678.08312	2.5
678.09305	16.15
678.10297	7.95
678.11289	-3.85
678.12281	6.7
678.13272	2.05
678.14264	-2.55
678.15255	3.1
678.16245	2.65
678.17236	1.1
678.18226	4.35
678.19216	1.75
678.20206	-8.55
678.21196	-1.8
678.22185	10.95
678.23174	10.35
678.24163	10
678.25151	5.15
678.2614	21.8
678.27128	23.15
678.28116	7.95
678.29103	11.2
678.30091	4.35
678.31078	-1.3
678.32065	-3.7
678.33051	4.95
678.34037	2.25
678.35024	-4.25
678.36009	-0.45
678.36995	3.5
678.37981	5.45
678.38966	-5
678.39951	-1.85
678.40935	1.75
678.4192	3.15
678.42904	-2.2
678.43888	6.75
678.44871	3.15
678.45855	12.2
678.46838	16.1
678.47821	-0.3
678.48804	-0.75
678.49786	18.45
678.50768	24.4
678.5175	10.05
678.52732	13.2
678.53713	13.25
678.54694	9.7
678.55675	-0.1
678.56656	-4.35
678.57637	-3.9
678.58617	0.8
678.59597	11.75
678.60577	5.8
678.61556	-7.15
678.62535	4.35
678.63514	19.4
678.64493	15.45
678.65472	5.45
678.6645	15.3
678.67428	10.05
678.68406	7.55
678.69383	0.7
678.7036	0.8
678.71337	7.55
678.72314	9.4
678.73291	10.5
678.74267	4.7
678.75243	0
678.76219	-1.55
678.77195	5.75
678.7817	3.15
678.79145	2.05
678.8012	4.6
678.81094	0.6
678.82069	-0.55
678.83043	38.4
678.84017	78.15
678.8499	4.55
678.85964	4.65
678.86937	9.5
678.87909	13
678.88882	8.45
678.89854	1.95
678.90827	4
678.91798	2.05
678.9277	1.7
678.93742	-6.6
678.94713	-1.75
678.95684	1.45
678.96654	9.4
678.97625	8.1
678.98595	9.25
678.99565	-4.45
679.00534	-4.1
679.01504	-3.8
679.02473	-5.25
679.03442	-3.95
679.04411	7.15
679.05379	2.1
679.06347	-4.95
679.07315	-0.3
679.08283	4.85
679.0925	1.6
679.10218	7.6
679.11185	0.1
679.12151	-0.35
679.13118	10.1
679.14084	0.15
679.1505	1.55
679.16016	-0.5
679.16981	-2.35
679.17946	9.45
679.18911	10.5
679.19876	-2.85
679.20841	8.95
679.21805	13.6
679.22769	11.65
679.23733	11.5
679.24696	17.9
679.2566	3.1
679.26623	1.35
679.27585	3.4
679.28548	-1.65
679.2951	4.4
679.30472	-4.1
679.31434	-3.85
679.32396	-4.1
679.33357	-4.65
679.34318	17.75
679.35279	29.3
679.3624	5.6
679.372	6.7
679.3816	10.75
679.3912	-0.05
679.40079	23.45
679.41039	13.75
679.41998	4.7
679.42957	5.7
679.43915	-0.6
679.44874	4.45
679.45832	16.85
679.4679	6.1
679.47747	-5.5
679.48705	-3.3
679.49662	10.15
679.50619	5.4
679.51575	-2.6
679.52532	2.85
679.53488	11.55
679.54444	6.2
679.554	3.5
679.56355	2.3
679.5731	6.55
679.58265	1.65
679.5922	-2.75
679.60174	6.75
679.61129	13.6
679.62083	3.8
679.63036	-9
679.6399	-1.25
679.64943	13.4
679.65896	8.15
679.66849	0.85
679.67801	8.15
679.68753	8.45
679.69705	14.5
679.70657	24.3
679.71609	17.15
679.7256	17.95
679.73511	9.9
679.74462	-1.25
679.75412	-3.55
679.76362	6.9
679.77312	8.3
679.78262	6.05
679.79212	4.85
679.80161	9.25
679.8111	-1
679.82059	1.3
679.83007	11
679.83956	9.85
679.84904	6.9
679.85852	11.9
679.86799	-0.95
679.87747	5.2
679.88694	-0.15
679.8964	2.25
679.90587	-1.25
679.91533	5.35
679.92479	1.6
679.93425	-1.6
679.94371	11.5
679.95316	13.2
679.96261	12.3
679.97206	7.5
679.98151	3.25
679.99095	0.1
680.00039	-2.1
680.00983	-2.3
680.01927	6.4
680.0287	1.1
680.03814	16.3
680.04756	2.35
680.05699	-1.6
680.06641	1.95
680.07584	-0.95
680.08526	-6.85
680.09467	2.85
680.10409	-3.4
680.1135	-8.45
680.12291	2.4
680.13232	10.05
680.14172	13.5
680.15112	5.2
680.16052	-1.8
680.16992	6.3
680.17931	12.1
680.18871	9
680.1981	-2.7
680.20748	-2.15
680.21687	-1.85
